Fold,M,Seed,epoch,loss,train_loss,val_macro_prd,epoch_seconds
1,51,11,1,0.1823624615943796,0.1823624615943796,24.145625432332356,3.1177754402160645
1,51,11,2,0.03146752239717021,0.03146752239717021,19.12622578938802,0.772193193435669
1,51,11,3,0.02304164338198122,0.02304164338198122,16.595728238423664,0.771228551864624
1,51,11,4,0.019073795811707376,0.019073795811707376,15.459152539571127,0.7704582214355469
1,51,11,5,0.016930260330175088,0.016930260330175088,14.839361826578775,0.7716648578643799
1,51,11,6,0.015673019420924535,0.015673019420924535,14.211942672729492,0.7728152275085449
1,51,11,7,0.014735917982995702,0.014735917982995702,13.479400634765625,0.7726337909698486
1,51,11,8,0.01395832866481191,0.01395832866481191,13.672601381937662,0.7752594947814941
1,51,11,9,0.013413064246937344,0.013413064246937344,13.636017163594564,0.7705278396606445
1,51,11,10,0.013325275482693718,0.013325275482693718,12.837807973225912,0.7712075710296631
1,51,11,11,0.01285161493627588,0.01285161493627588,12.5429048538208,0.7718572616577148
1,51,11,12,0.01259005636611648,0.01259005636611648,12.545989036560059,0.7725670337677002
1,51,11,13,0.012196263225773092,0.012196263225773092,12.351870854695639,0.7720930576324463
1,51,11,14,0.012017327874383837,0.012017327874383837,12.26625951131185,0.7734167575836182
1,51,11,15,0.011911548165023518,0.011911548165023518,12.892284711201986,0.7724661827087402
1,51,11,16,0.011705624033963469,0.011705624033963469,12.282580693562826,0.7732648849487305
1,51,11,17,0.011558988494678757,0.011558988494678757,12.138397534688314,0.7725615501403809
1,51,11,18,0.011489892261659793,0.011489892261659793,12.100237210591635,0.7735390663146973
1,51,11,19,0.011360479196102337,0.011360479196102337,12.647340138753256,0.7736091613769531
1,51,11,20,0.011201935491623459,0.011201935491623459,12.285082817077637,0.7727155685424805
1,51,11,21,0.01122064015250114,0.01122064015250114,11.770338376363119,0.7723689079284668
1,51,11,22,0.01101612513420738,0.01101612513420738,12.106316566467285,0.7724900245666504
1,51,11,23,0.011076628157892938,0.011076628157892938,12.236825625101725,0.7718236446380615
1,51,11,24,0.01090054654582161,0.01090054654582161,11.826583862304688,0.7719652652740479
1,51,11,25,0.010709478404564585,0.010709478404564585,11.718821207682291,0.7712523937225342
1,51,11,26,0.010718119358404322,0.010718119358404322,11.7187131245931,0.7714033126831055
1,51,11,27,0.010606699465950681,0.010606699465950681,11.989007314046225,0.7722511291503906
1,51,11,28,0.010593267392001783,0.010593267392001783,11.800514856974283,0.7757000923156738
1,51,11,29,0.010598673858047969,0.010598673858047969,11.835341771443685,0.7753438949584961
1,51,11,30,0.01047933094691593,0.01047933094691593,11.559341112772623,0.7735157012939453
1,51,11,31,0.010445665291860891,0.010445665291860891,11.651429812113443,0.7717766761779785
1,51,11,32,0.010334548509718664,0.010334548509718664,11.722363154093424,0.7718784809112549
1,51,11,33,0.010317093697211847,0.010317093697211847,11.795739809672037,0.7724864482879639
1,51,11,34,0.010298812576237215,0.010298812576237215,11.624272028605143,0.7733500003814697
1,51,11,35,0.010239071140838397,0.010239071140838397,11.463977495829264,0.7720944881439209
1,51,11,36,0.010278204724737637,0.010278204724737637,11.71960417429606,0.7722063064575195
1,51,11,37,0.010184856878078491,0.010184856878078491,11.528918584187826,0.7715508937835693
1,51,11,38,0.010114682051487914,0.010114682051487914,11.308576583862305,0.7721953392028809
1,51,11,39,0.010121935542816613,0.010121935542816613,11.288462003072103,0.7721042633056641
1,51,11,40,0.010057025137611956,0.010057025137611956,11.424687385559082,0.7722620964050293
1,51,11,41,0.010063171684682081,0.010063171684682081,11.584698994954428,0.7747836112976074
1,51,11,42,0.009962980166808298,0.009962980166808298,11.566815694173178,0.7735061645507812
1,51,11,43,0.009990128228093507,0.009990128228093507,11.343938827514648,0.7725474834442139
1,51,11,44,0.00991411683362253,0.00991411683362253,11.351691563924154,0.7752139568328857
1,51,11,45,0.009878932627163516,0.009878932627163516,11.556912740071615,0.7747766971588135
1,51,11,46,0.0099041866343708,0.0099041866343708,11.484218915303549,0.774482250213623
1,51,11,47,0.009897930881493633,0.009897930881493633,11.369232813517252,0.7743756771087646
1,51,11,48,0.009820911486803814,0.009820911486803814,11.42494265238444,0.7749977111816406
1,51,11,49,0.009713401803088006,0.009713401803088006,11.233559926350912,0.7747342586517334
1,51,11,50,0.009795204566348453,0.009795204566348453,11.464839617411295,0.773737907409668
1,51,11,51,0.009734770954643463,0.009734770954643463,12.14831288655599,0.7745239734649658
1,51,11,52,0.009744034589334148,0.009744034589334148,11.271295865376791,0.7748675346374512
1,51,11,53,0.009719058506675904,0.009719058506675904,11.100580851236979,0.7748053073883057
1,51,11,54,0.00970114825946246,0.00970114825946246,11.373003005981445,0.7741069793701172
1,51,11,55,0.00965367713261851,0.00965367713261851,11.221531550089518,0.7753310203552246
1,51,11,56,0.00961638023699499,0.00961638023699499,11.594799677530924,0.7743539810180664
1,51,11,57,0.009618367406860041,0.009618367406860041,11.353521029154459,0.7749464511871338
1,51,11,58,0.009613139068234676,0.009613139068234676,11.097205797831217,0.7747375965118408
1,51,11,59,0.009573820395203506,0.009573820395203506,11.16821543375651,0.7740347385406494
1,51,11,60,0.009540984496156838,0.009540984496156838,11.063655217488607,0.774909257888794
1,51,11,61,0.009537305545145676,0.009537305545145676,11.062832514444986,0.7747023105621338
1,51,11,62,0.00955139913063173,0.00955139913063173,11.172361056009928,0.7752459049224854
1,51,11,63,0.00948544145543787,0.00948544145543787,11.225120226542154,0.7742249965667725
1,51,11,64,0.009459107297463671,0.009459107297463671,11.148392677307129,0.7746684551239014
1,51,11,65,0.009468392627703033,0.009468392627703033,11.078750292460123,0.7744936943054199
1,51,11,66,0.009446254199209032,0.009446254199209032,11.05997403462728,0.7756080627441406
1,51,11,67,0.009395069356594486,0.009395069356594486,11.001063028971354,0.7748293876647949
1,51,11,68,0.009407509387084477,0.009407509387084477,11.122851689656576,0.8152308464050293
1,51,11,69,0.009346333526260553,0.009346333526260553,11.150394439697266,0.815460205078125
1,51,11,70,0.009366048075456376,0.009366048075456376,11.157079060872396,0.814814567565918
1,51,11,71,0.009374570650261172,0.009374570650261172,11.227670669555664,0.8160548210144043
1,51,11,72,0.009365328892292845,0.009365328892292845,11.016725540161133,0.814965009689331
1,51,11,73,0.00933792775682506,0.00933792775682506,11.071101188659668,0.8143680095672607
1,51,11,74,0.009306874478062154,0.009306874478062154,11.386393547058105,0.815244197845459
1,51,11,75,0.00928468239745215,0.00928468239745215,11.1903076171875,0.8140995502471924
1,51,11,76,0.009261973607997706,0.009261973607997706,10.977153142293295,0.7804851531982422
1,51,11,77,0.009284537287812285,0.009284537287812285,11.01668930053711,0.8141191005706787
1,51,11,78,0.009241569986030866,0.009241569986030866,11.162421544392904,0.8150606155395508
1,51,11,79,0.009245777669979612,0.009245777669979612,10.999553044637045,0.8138518333435059
1,51,11,80,0.009223123583373677,0.009223123583373677,11.006076176961264,0.801624059677124
1,51,11,81,0.009205088121187649,0.009205088121187649,10.90771770477295,0.7770736217498779
1,51,11,82,0.009168893506846292,0.009168893506846292,10.978254954020182,0.8088912963867188
1,51,11,83,0.009180862327792062,0.009180862327792062,11.015136082967123,0.8144741058349609
1,51,11,84,0.009170547060345051,0.009170547060345051,11.132028261820475,0.8143889904022217
1,51,11,85,0.0091537742945141,0.0091537742945141,10.935222307840982,0.814293622970581
1,51,11,86,0.00911173775007535,0.00911173775007535,11.02573267618815,0.8148989677429199
1,51,11,87,0.009102972228472327,0.009102972228472327,11.067631085713705,0.814915657043457
1,51,11,88,0.009150172195208656,0.009150172195208656,10.938069661458334,0.8151288032531738
1,51,11,89,0.009085147767372645,0.009085147767372645,11.159974733988443,0.7738063335418701
1,51,11,90,0.009100564817637444,0.009100564817637444,11.135382970174154,0.8148398399353027
1,51,11,91,0.009095816119870476,0.009095816119870476,10.978974342346191,0.8152463436126709
1,51,22,1,0.19678744741706508,0.19678744741706508,24.169246037801106,0.7755439281463623
1,51,22,2,0.03210012457360457,0.03210012457360457,19.260985056559246,0.7747113704681396
1,51,22,3,0.0232637508868141,0.0232637508868141,17.14772319793701,0.7865316867828369
1,51,22,4,0.019084605473689616,0.019084605473689616,15.470017751057943,0.8129405975341797
1,51,22,5,0.016887585403415648,0.016887585403415648,14.642444928487143,0.813107967376709
1,51,22,6,0.015670097455490153,0.015670097455490153,15.032992045084635,0.8132162094116211
1,51,22,7,0.014705662878373955,0.014705662878373955,13.609757423400879,0.8118374347686768
1,51,22,8,0.014020883698327845,0.014020883698327845,12.962162335713705,0.8123035430908203
1,51,22,9,0.01346930233953323,0.01346930233953323,12.97754955291748,0.813021183013916
1,51,22,10,0.013116685410069115,0.013116685410069115,12.750800768534342,0.8122580051422119
1,51,22,11,0.012665001810992503,0.012665001810992503,13.560195604960123,0.8117029666900635
1,51,22,12,0.012437295219546536,0.012437295219546536,12.654561996459961,0.8124451637268066
1,51,22,13,0.012189322344395796,0.012189322344395796,13.387940406799316,0.8115441799163818
1,51,22,14,0.012009905788214979,0.012009905788214979,12.279197692871094,0.7851238250732422
1,51,22,15,0.01174887821416691,0.01174887821416691,12.497529983520508,0.7744235992431641
1,51,22,16,0.011736408132802204,0.011736408132802204,12.314617792765299,0.7778570652008057
1,51,22,17,0.011495932414109587,0.011495932414109587,12.100927670796713,0.8117704391479492
1,51,22,18,0.011406660045518081,0.011406660045518081,12.025701522827148,0.813856840133667
1,51,22,19,0.011333173966646147,0.011333173966646147,11.979610125223795,0.8118374347686768
1,51,22,20,0.01124777020721837,0.01124777020721837,11.717858950297037,0.7690575122833252
1,51,22,21,0.011117996298333696,0.011117996298333696,11.978436152140299,0.8117139339447021
1,51,22,22,0.01103149489739197,0.01103149489739197,11.946862856547037,0.8043341636657715
1,51,22,23,0.010815743086679907,0.010815743086679907,12.038947741190592,0.8050906658172607
1,51,22,24,0.010863784987365654,0.010863784987365654,11.925837198893229,0.8096413612365723
1,51,22,25,0.010819803906149467,0.010819803906149467,12.06965192159017,0.7681620121002197
1,51,22,26,0.010729476954740056,0.010729476954740056,11.494651158650717,0.7723050117492676
1,51,22,27,0.010596247353228677,0.010596247353228677,11.816281954447428,0.7707452774047852
1,51,22,28,0.010660314607550764,0.010660314607550764,11.634172757466635,0.7720921039581299
1,51,22,29,0.010468937298642334,0.010468937298642334,11.99741268157959,0.7727675437927246
1,51,22,30,0.010524149328302533,0.010524149328302533,11.622211138407389,0.7679998874664307
1,51,22,31,0.010428023866716162,0.010428023866716162,11.795049667358398,0.7753808498382568
1,51,22,32,0.010453127867353546,0.010453127867353546,11.667118708292643,0.7766010761260986
1,51,22,33,0.0103311366985561,0.0103311366985561,11.583879152933756,0.7740912437438965
1,51,22,34,0.010218058375887261,0.010218058375887261,11.429296493530273,0.7725770473480225
1,51,22,35,0.010225615381799232,0.010225615381799232,11.572722752888998,0.7739839553833008
1,51,22,36,0.010244513863332307,0.010244513863332307,11.655820846557617,0.7746245861053467
1,51,22,37,0.010198263510600498,0.010198263510600498,11.602089564005533,0.7734735012054443
1,51,22,38,0.010194049292420699,0.010194049292420699,11.681925137837728,0.7728073596954346
1,51,22,39,0.010133692339643645,0.010133692339643645,11.797831535339355,0.7720623016357422
1,51,22,40,0.010025982894722096,0.010025982894722096,11.960771560668945,0.7727575302124023
1,51,22,41,0.010049742083529377,0.010049742083529377,11.572760899861654,0.7714252471923828
1,51,22,42,0.0100382743380856,0.0100382743380856,11.153696060180664,0.7717030048370361
1,51,22,43,0.009993487489903854,0.009993487489903854,11.486619313557943,0.7711939811706543
1,51,22,44,0.009916135771020384,0.009916135771020384,11.864753087361654,0.7717435359954834
1,51,22,45,0.009927584677395617,0.009927584677395617,11.858417510986328,0.7721524238586426
1,51,22,46,0.009854946724944703,0.009854946724944703,11.417269388834635,0.773679256439209
1,51,22,47,0.009805185513696678,0.009805185513696678,11.532363255818685,0.772273063659668
1,51,22,48,0.009837883840527662,0.009837883840527662,11.606698989868164,0.7733526229858398
1,51,22,49,0.009769833323297202,0.009769833323297202,11.308272997538248,0.7727885246276855
1,51,22,50,0.009763006013863004,0.009763006013863004,11.39992904663086,0.775059700012207
1,51,22,51,0.009731174690702817,0.009731174690702817,11.307774861653646,0.7747492790222168
1,51,22,52,0.009679759496978673,0.009679759496978673,11.424825032552084,0.7667958736419678
1,51,33,1,0.19861429687469623,0.19861429687469623,24.214659372965496,0.7739200592041016
1,51,33,2,0.03193776932518055,0.03193776932518055,18.760563532511394,0.77321457862854
1,51,33,3,0.023183507361176792,0.023183507361176792,16.718294143676758,0.7658834457397461
1,51,33,4,0.019205159208231227,0.019205159208231227,16.314199447631836,0.7662229537963867
1,51,33,5,0.01706732867189782,0.01706732867189782,14.43627134958903,0.765601634979248
1,51,33,6,0.015551425344415512,0.015551425344415512,13.77309767405192,0.7658076286315918
1,51,33,7,0.014710088749341307,0.014710088749341307,13.502577781677246,0.7708418369293213
1,51,33,8,0.014090064832180067,0.014090064832180067,13.769877751668295,0.7708380222320557
1,51,33,9,0.013498477131679319,0.013498477131679319,13.336995760599772,0.7629539966583252
1,51,33,10,0.012923783712520285,0.012923783712520285,13.204091707865397,0.763129472732544
1,51,33,11,0.012749639919201373,0.012749639919201373,12.615790685017904,0.763206958770752
1,51,33,12,0.012463065109086909,0.012463065109086909,12.519463857014975,0.7639491558074951
1,51,33,13,0.01204189658614169,0.01204189658614169,12.65066909790039,0.7628769874572754
1,51,33,14,0.012098284121572827,0.012098284121572827,12.251729011535645,0.7660641670227051
1,51,33,15,0.011883675888138809,0.011883675888138809,12.157469113667807,0.7662413120269775
1,51,33,16,0.011588058469613409,0.011588058469613409,11.991950670878092,0.7729589939117432
1,51,33,17,0.011498874795272755,0.011498874795272755,12.44975217183431,0.7624428272247314
1,51,33,18,0.011380555174819574,0.011380555174819574,12.422251065572103,0.7630445957183838
1,51,33,19,0.011382064335138036,0.011382064335138036,12.183071454366049,0.7653393745422363
1,51,33,20,0.011200394804838002,0.011200394804838002,12.153307914733887,0.7638735771179199
1,51,33,21,0.011022615436632245,0.011022615436632245,12.055462519327799,0.7732188701629639
1,51,33,22,0.01107756780322725,0.01107756780322725,12.323564211527506,0.7721865177154541
1,51,33,23,0.011025027842844846,0.011025027842844846,12.071020126342773,0.7626831531524658
1,51,33,24,0.010767425905308204,0.010767425905308204,11.791746139526367,0.7642714977264404
1,51,33,25,0.010773692449998002,0.010773692449998002,11.815174102783203,0.7663321495056152
1,51,33,26,0.010703814932417687,0.010703814932417687,12.044913609822592,0.7677288055419922
1,51,33,27,0.010643765037591865,0.010643765037591865,11.71794573465983,0.7690987586975098
1,51,33,28,0.010551379433566543,0.010551379433566543,11.892195701599121,0.770827054977417
1,51,33,29,0.010563200267804397,0.010563200267804397,11.61054261525472,0.769763708114624
1,51,33,30,0.010556946971253088,0.010556946971253088,11.596507708231607,0.7691187858581543
1,51,33,31,0.010370585633968856,0.010370585633968856,11.52802562713623,0.763653039932251
1,51,33,32,0.010367452502370455,0.010367452502370455,12.1949675877889,0.766512393951416
1,51,33,33,0.010382807436264404,0.010382807436264404,11.577725092569986,0.7690565586090088
1,51,33,34,0.010270640401505054,0.010270640401505054,11.461443265279135,0.7695116996765137
1,51,33,35,0.010143997234522913,0.010143997234522913,11.627449989318848,0.7739150524139404
1,51,33,36,0.010182167106933915,0.010182167106933915,11.492604573567709,0.7728893756866455
1,51,33,37,0.010135880983629266,0.010135880983629266,11.50279712677002,0.7722587585449219
1,51,33,38,0.010057913311652336,0.010057913311652336,11.919742902119955,0.7746772766113281
1,51,33,39,0.010088653197374278,0.010088653197374278,11.610576629638672,0.7731525897979736
1,51,33,40,0.010009685663769915,0.010009685663769915,11.522671063741049,0.7656419277191162
1,51,33,41,0.009962794422606228,0.009962794422606228,11.529640515645346,0.7689952850341797
1,51,33,42,0.00997310341260968,0.00997310341260968,11.362577120463053,0.7698204517364502
1,51,33,43,0.009913141556215919,0.009913141556215919,11.501598993937174,0.7646126747131348
1,51,33,44,0.009818464925608499,0.009818464925608499,11.25975481669108,0.7659900188446045
1,51,33,45,0.009817204212805802,0.009817204212805802,11.426504135131836,0.7646126747131348
1,51,33,46,0.009815821694389848,0.009815821694389848,11.325034777323404,0.7675118446350098
1,51,33,47,0.009725149423318206,0.009725149423318206,11.3701753616333,0.7637147903442383
1,51,33,48,0.00984602491071873,0.00984602491071873,11.281787236531576,0.7638888359069824
1,51,33,49,0.009781811739710366,0.009781811739710366,11.251809120178223,0.7672100067138672
1,51,33,50,0.009716432419578602,0.009716432419578602,11.328050295511881,0.7645206451416016
1,51,33,51,0.009701223757980434,0.009701223757980434,11.784297307332357,0.7650189399719238
1,51,33,52,0.009644323333325254,0.009644323333325254,11.30398972829183,0.7644004821777344
1,51,33,53,0.009677747039160306,0.009677747039160306,11.210018793741861,0.765944242477417
1,51,33,54,0.009636601058083475,0.009636601058083475,11.168010711669922,0.7651019096374512
1,51,33,55,0.009542200774241874,0.009542200774241874,11.243362426757812,0.7653124332427979
1,51,33,56,0.009580840581992095,0.009580840581992095,11.206480026245117,0.7656855583190918
1,51,33,57,0.00948751325662161,0.00948751325662161,11.14415200551351,0.7730100154876709
1,51,33,58,0.009519032492389203,0.009519032492389203,11.010912577311197,0.7721211910247803
1,51,33,59,0.009460226443994467,0.009460226443994467,11.236373583475748,0.7678084373474121
1,51,33,60,0.009425504050004951,0.009425504050004951,11.12831942240397,0.7685229778289795
1,51,33,61,0.00937581207330707,0.00937581207330707,11.334551493326822,0.768632173538208
1,51,33,62,0.009451176276448455,0.009451176276448455,11.1890869140625,0.7725505828857422
1,51,33,63,0.009408848507665218,0.009408848507665218,10.988162358601889,0.7633802890777588
1,51,33,64,0.0094076985990407,0.0094076985990407,11.19575564066569,0.763784646987915
1,51,33,65,0.00938242729348984,0.00938242729348984,11.349794387817383,0.7634406089782715
1,51,33,66,0.009360387611391557,0.009360387611391557,11.439733187357584,0.7645854949951172
1,51,33,67,0.009330269588618705,0.009330269588618705,11.193690617879232,0.763087272644043
1,51,33,68,0.00931841754159887,0.00931841754159887,11.293825149536133,0.7662577629089355
1,51,33,69,0.009319102688815289,0.009319102688815289,11.032032330830893,0.7662761211395264
1,51,33,70,0.009274224401077322,0.009274224401077322,11.315927505493164,0.7675385475158691
1,51,33,71,0.009255454715317373,0.009255454715317373,11.201677958170572,0.7669389247894287
1,51,33,72,0.009239608991645588,0.009239608991645588,11.172300338745117,0.7683753967285156
1,51,33,73,0.009236409536254415,0.009236409536254415,11.07806396484375,0.7688076496124268
1,77,11,1,0.11786758410370043,0.11786758410370043,15.547159830729166,0.8197915554046631
1,77,11,2,0.010684238259390093,0.010684238259390093,9.762233098347982,0.7772412300109863
1,77,11,3,0.006026273068501778,0.006026273068501778,7.525574366251628,0.7674434185028076
1,77,11,4,0.004075558820943022,0.004075558820943022,6.58594544728597,0.7671232223510742
1,77,11,5,0.0032270666617238326,0.0032270666617238326,6.246274948120117,0.7738921642303467
1,77,11,6,0.0027830866260912233,0.0027830866260912233,8.307466983795166,0.7740805149078369
1,77,11,7,0.0025351425888124625,0.0025351425888124625,5.070913791656494,0.7750856876373291
1,77,11,8,0.0021610589511917118,0.0021610589511917118,4.936081250508626,0.7781426906585693
1,77,11,9,0.0021104163723627938,0.0021104163723627938,4.898043950398763,0.7768449783325195
1,77,11,10,0.0019398303709960156,0.0019398303709960156,4.524868885676066,0.7771079540252686
1,77,11,11,0.0018329272016551993,0.0018329272016551993,4.334386269251506,0.777273416519165
1,77,11,12,0.0016672380066999322,0.0016672380066999322,4.211641232172648,0.7763693332672119
1,77,11,13,0.001626939690126094,0.001626939690126094,3.8904338677724204,0.7780232429504395
1,77,11,14,0.0015841145468935658,0.0015841145468935658,3.8521050612131753,0.804499626159668
1,77,11,15,0.0014241832346652433,0.0014241832346652433,4.390267928441365,0.7695794105529785
1,77,11,16,0.001421958327961942,0.001421958327961942,3.9315237204233804,0.7703814506530762
1,77,11,17,0.0013373690502721087,0.0013373690502721087,4.1409900188446045,0.7700722217559814
1,77,11,18,0.0013593154821067246,0.0013593154821067246,3.716984192530314,0.7694137096405029
1,77,11,19,0.0012025818329976746,0.0012025818329976746,4.471862316131592,0.7698101997375488
1,77,11,20,0.0012672093554274135,0.0012672093554274135,3.9483683109283447,0.7698931694030762
1,77,11,21,0.0011834222471515177,0.0011834222471515177,3.4246954917907715,0.7705709934234619
1,77,11,22,0.0011117088375800256,0.0011117088375800256,3.6502912044525146,0.7711126804351807
1,77,11,23,0.00114715896629941,0.00114715896629941,3.74619730313619,0.7711429595947266
1,77,11,24,0.0011263362465537127,0.0011263362465537127,3.2349613507588706,0.7735991477966309
1,77,11,25,0.00106533483184359,0.00106533483184359,3.375365654627482,0.7774507999420166
1,77,11,26,0.0010175484398150087,0.0010175484398150087,3.168602466583252,0.7799711227416992
1,77,11,27,0.0010157098116426522,0.0010157098116426522,3.3214594523111978,0.7716958522796631
1,77,11,28,0.0010044046369204567,0.0010044046369204567,3.5742401281992593,0.7696611881256104
1,77,11,29,0.000932943240879403,0.000932943240879403,4.355395396550496,0.7690801620483398
1,77,11,30,0.000939540813472631,0.000939540813472631,2.9791480700174966,0.7722744941711426
1,77,11,31,0.000928794400196768,0.000928794400196768,3.0385642846425376,0.7778806686401367
1,77,11,32,0.000884088058216674,0.000884088058216674,3.0948028564453125,0.7766427993774414
1,77,11,33,0.0010153280287644889,0.0010153280287644889,3.0503169695536294,0.7758181095123291
1,77,11,34,0.0008619908284406415,0.0008619908284406415,3.4209886391957602,0.7680661678314209
1,77,11,35,0.0008183245571353398,0.0008183245571353398,2.9243719577789307,0.7701573371887207
1,77,11,36,0.0008496436172249574,0.0008496436172249574,3.018505573272705,0.7709853649139404
1,77,11,37,0.0008761485700923769,0.0008761485700923769,3.1908559004465737,0.7711997032165527
1,77,11,38,0.000828857523105796,0.000828857523105796,2.8491709232330322,0.7742757797241211
1,77,11,39,0.0008259785811340442,0.0008259785811340442,2.904995600382487,0.7746152877807617
1,77,11,40,0.0007956757558224471,0.0007956757558224471,2.7938992182413735,0.7743082046508789
1,77,11,41,0.0008047573822228555,0.0008047573822228555,3.187058925628662,0.7796521186828613
1,77,11,42,0.0007806491699399894,0.0007806491699399894,2.929085890452067,0.7760531902313232
1,77,11,43,0.0007721681266755818,0.0007721681266755818,2.896671692530314,0.777423620223999
1,77,11,44,0.0007603091303441806,0.0007603091303441806,2.8160919348398843,0.7691562175750732
1,77,11,45,0.0007291438313589621,0.0007291438313589621,3.358690023422241,0.7727160453796387
1,77,11,46,0.000742697601056496,0.000742697601056496,2.943185567855835,0.7749733924865723
1,77,11,47,0.0007457505231064376,0.0007457505231064376,2.66011651357015,0.7754342555999756
1,77,11,48,0.0007222033058719146,0.0007222033058719146,2.6341452598571777,0.7741718292236328
1,77,11,49,0.0007251311388631108,0.0007251311388631108,3.314034859339396,0.77443528175354
1,77,11,50,0.0006870956113711718,0.0006870956113711718,3.0170464515686035,0.7733917236328125
1,77,11,51,0.000705666629284234,0.000705666629284234,3.102267583211263,0.7702693939208984
1,77,11,52,0.0006975851067936293,0.0006975851067936293,2.646890958150228,0.7701082229614258
1,77,11,53,0.000679834013736666,0.000679834013736666,2.4994680881500244,0.7706403732299805
1,77,11,54,0.0006801949489608683,0.0006801949489608683,2.555689732233683,0.7705538272857666
1,77,11,55,0.0006747538285813567,0.0006747538285813567,2.60288675626119,0.7692959308624268
1,77,11,56,0.0006627575830540356,0.0006627575830540356,3.1043852170308432,0.7690179347991943
1,77,11,57,0.0006519169070334189,0.0006519169070334189,2.7215617497762046,0.7686629295349121
1,77,11,58,0.0006533883311007159,0.0006533883311007159,2.67576273282369,0.7712364196777344
1,77,11,59,0.0006353131776534836,0.0006353131776534836,2.3648037910461426,0.7710602283477783
1,77,11,60,0.0006226730177615443,0.0006226730177615443,2.4165402253468833,0.7725214958190918
1,77,11,61,0.0006305777313939364,0.0006305777313939364,2.5347410837809243,0.7744476795196533
1,77,11,62,0.000626925867486227,0.000626925867486227,2.4057792822519937,0.7734098434448242
1,77,11,63,0.0006048207399038556,0.0006048207399038556,2.666430711746216,0.777611255645752
1,77,11,64,0.0006257493118718086,0.0006257493118718086,2.5760084788004556,0.7691648006439209
1,77,11,65,0.0005994685334108554,0.0005994685334108554,2.3661042054494223,0.7694876194000244
1,77,11,66,0.0006080013259528864,0.0006080013259528864,2.501157840092977,0.771329402923584
1,77,11,67,0.0006114475450488227,0.0006114475450488227,2.3903165658315024,0.7701249122619629
1,77,11,68,0.0006424855823883895,0.0006424855823883895,2.421062787373861,0.7709448337554932
1,77,11,69,0.0005630449414548203,0.0005630449414548203,2.418206055959066,0.7692945003509521
1,77,22,1,0.12871778027492894,0.12871778027492894,16.007203420003254,0.7764241695404053
1,77,22,2,0.011560769985621597,0.011560769985621597,10.132187207539877,0.7752594947814941
1,77,22,3,0.006123398046961527,0.006123398046961527,8.027758598327637,0.7670011520385742
1,77,22,4,0.004287681113359581,0.004287681113359581,6.8369771639506025,0.76767897605896
1,77,22,5,0.003484078006178045,0.003484078006178045,6.184961001078288,0.7668793201446533
1,77,22,6,0.002795118508954799,0.002795118508954799,6.049643357594808,0.7687618732452393
1,77,22,7,0.002608413754144857,0.002608413754144857,5.906218846638997,0.7702054977416992
1,77,22,8,0.0023907421379862205,0.0023907421379862205,4.769085089365642,0.7703628540039062
1,77,22,9,0.002067424154614317,0.002067424154614317,4.930623372395833,0.7695717811584473
1,77,22,10,0.0019906326753897385,0.0019906326753897385,4.63968547185262,0.7701728343963623
1,77,22,11,0.001776376748876796,0.001776376748876796,4.840019861857097,0.7726380825042725
1,77,22,12,0.0017105254450950687,0.0017105254450950687,4.906656901041667,0.7743265628814697
1,77,22,13,0.0016650995050580914,0.0016650995050580914,4.803104559580485,0.7719495296478271
1,77,22,14,0.001601748176329317,0.001601748176329317,3.7945709228515625,0.772047758102417
1,77,22,15,0.0014352260295592153,0.0014352260295592153,4.072981754938762,0.7714872360229492
1,77,22,16,0.0013604617869096638,0.0013604617869096638,3.7721782525380454,0.7722151279449463
1,77,22,17,0.001355761232305995,0.001355761232305995,3.674847443898519,0.7810580730438232
1,77,22,18,0.001284592476403161,0.001284592476403161,4.127063274383545,0.8085227012634277
1,77,22,19,0.0013233078588466565,0.0013233078588466565,3.77742608388265,0.8085951805114746
1,77,22,20,0.0011908870930236934,0.0011908870930236934,3.6205316384633384,0.8123714923858643
1,77,22,21,0.0012460534197972321,0.0012460534197972321,3.7113942305246987,0.8171844482421875
1,77,22,22,0.0011209416410202981,0.0011209416410202981,3.7756337324778237,0.8166427612304688
1,77,22,23,0.0011342562668825054,0.0011342562668825054,3.43812886873881,0.8122706413269043
1,77,22,24,0.00105472203013577,0.00105472203013577,3.881497780481974,0.768463134765625
1,77,22,25,0.00105302885668487,0.00105302885668487,3.558941602706909,0.7772984504699707
1,77,22,26,0.0010520823511285288,0.0010520823511285288,3.039846340815226,0.8139989376068115
1,77,22,27,0.0010071689747925248,0.0010071689747925248,3.6841441790262857,0.8055753707885742
1,77,22,28,0.0009642372554852373,0.0009642372554852373,3.1945027510325112,0.8090355396270752
1,77,22,29,0.0009492251147883659,0.0009492251147883659,3.252197583516439,0.8070313930511475
1,77,22,30,0.0009551344316234135,0.0009551344316234135,3.2173121770222983,0.8075535297393799
1,77,22,31,0.0009134273544302768,0.0009134273544302768,3.092618942260742,0.8117358684539795
1,77,22,32,0.0009283070225389135,0.0009283070225389135,3.0604981581370034,0.8094093799591064
1,77,22,33,0.0009124068303465681,0.0009124068303465681,2.9545116424560547,0.811730146408081
1,77,22,34,0.0008775916532051849,0.0008775916532051849,2.9395965735117593,0.8145260810852051
1,77,22,35,0.000865961752728622,0.000865961752728622,3.198164383570353,0.8136224746704102
1,77,22,36,0.0008320609341847929,0.0008320609341847929,3.1973493893941245,0.8175654411315918
1,77,22,37,0.0008370918816481822,0.0008370918816481822,3.6458565394083657,0.8170356750488281
1,77,22,38,0.0008734924958493273,0.0008734924958493273,3.9874717394510903,0.80898118019104
1,77,22,39,0.0008138995754257012,0.0008138995754257012,2.899312973022461,0.7782280445098877
1,77,22,40,0.0008161397447017504,0.0008161397447017504,3.2291301091512046,0.7645752429962158
1,77,22,41,0.0007637022663928999,0.0007637022663928999,3.1488535404205322,0.765636682510376
1,77,22,42,0.0008005654084937156,0.0008005654084937156,2.589597145716349,0.7679429054260254
1,77,22,43,0.0007800512491961959,0.0007800512491961959,3.2174036502838135,0.7700693607330322
1,77,22,44,0.0007656913254334415,0.0007656913254334415,3.330881118774414,0.770392656326294
1,77,22,45,0.0007523237949838394,0.0007523237949838394,3.344130833943685,0.7684733867645264
1,77,22,46,0.0007466295798338344,0.0007466295798338344,3.2386082808176675,0.770287275314331
1,77,22,47,0.0007434514176846898,0.0007434514176846898,3.0394159952799478,0.7743134498596191
1,77,22,48,0.0007599512738560497,0.0007599512738560497,3.402249733606974,0.7653524875640869
1,77,22,49,0.000706612971494157,0.000706612971494157,2.6737841765085855,0.7650487422943115
1,77,22,50,0.0007143736767531687,0.0007143736767531687,2.6782353719075522,0.7645330429077148
1,77,22,51,0.0006927619539418368,0.0006927619539418368,2.7925644715627036,0.7663540840148926
1,77,22,52,0.000737431989080599,0.000737431989080599,2.7581024964650473,0.7971665859222412
1,77,33,1,0.12125087632585041,0.12125087632585041,15.369709014892578,0.811445951461792
1,77,33,2,0.010805762706809585,0.010805762706809585,9.624741236368815,0.8125467300415039
1,77,33,3,0.005727488794244251,0.005727488794244251,7.865302721659343,0.8144545555114746
1,77,33,4,0.004187878936048525,0.004187878936048525,6.98966630299886,0.8145425319671631
1,77,33,5,0.003336218069494669,0.003336218069494669,5.905111789703369,0.8138434886932373
1,77,33,6,0.002960612178575008,0.002960612178575008,5.179600715637207,0.8143668174743652
1,77,33,7,0.0025388802172634094,0.0025388802172634094,5.654399236043294,0.8143439292907715
1,77,33,8,0.0025301037450400376,0.0025301037450400376,4.742273489634196,0.8137378692626953
1,77,33,9,0.002113420464221232,0.002113420464221232,4.7260355949401855,0.8130104541778564
1,77,33,10,0.0018623798495679615,0.0018623798495679615,4.826689561208089,0.8140761852264404
1,77,33,11,0.0018682711525824687,0.0018682711525824687,4.250327269236247,0.8165931701660156
1,77,33,12,0.0017332972020436366,0.0017332972020436366,4.57747745513916,0.8082726001739502
1,77,33,13,0.0016215314743875666,0.0016215314743875666,4.212051868438721,0.8094313144683838
1,77,33,14,0.0015319728385544775,0.0015319728385544775,4.1476006507873535,0.8078267574310303
1,77,33,15,0.0014934777981231821,0.0014934777981231821,4.584307670593262,0.8068552017211914
1,77,33,16,0.0014660051221647853,0.0014660051221647853,3.6559276580810547,0.8095066547393799
1,77,33,17,0.0013697563950009824,0.0013697563950009824,4.180667002995809,0.8077130317687988
1,77,33,18,0.0013122349728379471,0.0013122349728379471,4.086197217305501,0.8111200332641602
1,77,33,19,0.001232264665819381,0.001232264665819381,3.8835598627726235,0.8114407062530518
1,77,33,20,0.0012141821179404207,0.0012141821179404207,3.554222663243612,0.811140775680542
1,77,33,21,0.001166403787532504,0.001166403787532504,3.4119253158569336,0.8112521171569824
1,77,33,22,0.001180675295168471,0.001180675295168471,4.8540143966674805,0.812065601348877
1,77,33,23,0.0011641353448677712,0.0011641353448677712,3.8638365268707275,0.8136742115020752
1,77,33,24,0.0010899886626666382,0.0010899886626666382,3.109787940979004,0.8145091533660889
1,77,33,25,0.0010522447307100011,0.0010522447307100011,3.4550193150838218,0.8134143352508545
1,77,33,26,0.001032291079275804,0.001032291079275804,3.9179189205169678,0.8137195110321045
1,77,33,27,0.0009995762167432588,0.0009995762167432588,3.031081755956014,0.8159162998199463
1,77,33,28,0.0009691659944136463,0.0009691659944136463,3.582669734954834,0.8176367282867432
1,77,33,29,0.0009963265704863234,0.0009963265704863234,3.0228939056396484,0.8154962062835693
1,77,33,30,0.0009398552375004126,0.0009398552375004126,3.0264565149943032,0.8127400875091553
1,77,33,31,0.0009326414297592386,0.0009326414297592386,3.0672024885813394,0.8160309791564941
1,77,33,32,0.0008859956266255181,0.0008859956266255181,3.0597973664601645,0.8078804016113281
1,77,33,33,0.0009033968763398246,0.0009033968763398246,3.2130276362101235,0.7961587905883789
1,77,33,34,0.0008728274340659733,0.0008728274340659733,3.020837386449178,0.7650425434112549
1,77,33,35,0.0008299396647244447,0.0008299396647244447,3.246041933695475,0.7645108699798584
1,77,33,36,0.0009253784365913834,0.0009253784365913834,3.214750051498413,0.7664361000061035
1,77,33,37,0.0008233854772861436,0.0008233854772861436,2.8915403683980307,0.7645800113677979
1,77,33,38,0.0008265505443024674,0.0008265505443024674,4.641339302062988,0.7640526294708252
1,77,33,39,0.0008283239909372116,0.0008283239909372116,3.2311364014943442,0.7693521976470947
1,77,33,40,0.0008157084315492685,0.0008157084315492685,2.894578536351522,0.8101115226745605
1,77,33,41,0.0007737771071432985,0.0007737771071432985,3.072971741358439,0.8100872039794922
1,77,33,42,0.0007786056917431013,0.0007786056917431013,2.840700387954712,0.8102743625640869
1,77,33,43,0.0007682175308984773,0.0007682175308984773,3.0097501277923584,0.8137595653533936
1,77,33,44,0.0007524976633725706,0.0007524976633725706,2.764224052429199,0.8125016689300537
1,77,33,45,0.0007526586760566165,0.0007526586760566165,2.9715028603871665,0.8156173229217529
1,77,33,46,0.000757378939661973,0.000757378939661973,2.975271542867025,0.8158359527587891
1,77,33,47,0.0007245645308462825,0.0007245645308462825,2.9489456017812095,0.8153178691864014
1,77,33,48,0.0007565146218255383,0.0007565146218255383,2.741354465484619,0.8160262107849121
1,77,33,49,0.0007164584620353403,0.0007164584620353403,2.7181197802225747,0.8158748149871826
1,77,33,50,0.000724003372194172,0.000724003372194172,2.701600710550944,0.8132939338684082
1,77,33,51,0.0007130674501919184,0.0007130674501919184,2.67815891901652,0.8152725696563721
1,77,33,52,0.0007037920199339862,0.0007037920199339862,3.0154528617858887,0.7939646244049072
1,77,33,53,0.000682208133111648,0.000682208133111648,2.5744760036468506,0.8163454532623291
1,77,33,54,0.000680924113404711,0.000680924113404711,2.64263653755188,0.8065385818481445
1,77,33,55,0.000719678987149251,0.000719678987149251,2.729247490564982,0.8077583312988281
1,77,33,56,0.0006585189659680746,0.0006585189659680746,2.589777866999308,0.8079733848571777
1,77,33,57,0.0006528925253104544,0.0006528925253104544,2.58032496770223,0.8082683086395264
1,77,33,58,0.0006575445983135156,0.0006575445983135156,2.465048631032308,0.8064079284667969
1,77,33,59,0.0006513121166626602,0.0006513121166626602,2.69236159324646,0.8061103820800781
1,77,33,60,0.0006380692114821453,0.0006380692114821453,2.4713429609934487,0.8079423904418945
1,77,33,61,0.0006069604612862949,0.0006069604612862949,2.997978925704956,0.8092575073242188
1,77,33,62,0.0006581613192895512,0.0006581613192895512,2.454477230707804,0.8115208148956299
1,77,33,63,0.0006377219718093369,0.0006377219718093369,2.2888429164886475,0.8111345767974854
1,77,33,64,0.000613069493285009,0.000613069493285009,2.8954583009084067,0.810297966003418
1,77,33,65,0.0006200133117160631,0.0006200133117160631,2.895907243092855,0.8109872341156006
1,77,33,66,0.0006093417569078577,0.0006093417569078577,2.7419608434041343,0.8147306442260742
1,77,33,67,0.0005992000724261603,0.0005992000724261603,2.3555990854899087,0.817314863204956
1,77,33,68,0.0006102142496453,0.0006102142496453,2.88403050104777,0.8085882663726807
1,77,33,69,0.0006013173588729011,0.0006013173588729011,2.381669759750366,0.8090455532073975
1,77,33,70,0.0005865212506221583,0.0005865212506221583,2.6324597199757895,0.8090732097625732
1,77,33,71,0.00058651264634607,0.00058651264634607,2.571690877278646,0.8131465911865234
1,77,33,72,0.0005664237065280419,0.0005664237065280419,2.8270839055379233,0.8169691562652588
1,77,33,73,0.0005834664531999906,0.0005834664531999906,2.4728437264760337,0.8169260025024414
1,128,11,1,0.06878672454092903,0.06878672454092903,8.600361824035645,0.8387355804443359
1,128,11,2,0.003729762267463592,0.003729762267463592,5.725391705830892,0.8269984722137451
1,128,11,3,0.0022743699590786334,0.0022743699590786334,4.675225416819255,0.8259396553039551
1,128,11,4,0.0017493644081111519,0.0017493644081111519,4.2629484335581465,0.8190240859985352
1,128,11,5,0.0013761810826997114,0.0013761810826997114,3.967256466547648,0.819159984588623
1,128,11,6,0.0012189533658418506,0.0012189533658418506,5.506890455881755,0.818324089050293
1,128,11,7,0.0011695778122118605,0.0011695778122118605,3.23919407526652,0.8208301067352295
1,128,11,8,0.0009648535770556509,0.0009648535770556509,3.2890737851460776,0.8208835124969482
1,128,11,9,0.000912810905635884,0.000912810905635884,3.254361947377523,0.8214683532714844
1,128,11,10,0.0008501017465625989,0.0008501017465625989,2.837835709253947,0.8231015205383301
1,128,11,11,0.0007277383690646032,0.0007277383690646032,2.611451784769694,0.8233795166015625
1,128,11,12,0.0007261765891142561,0.0007261765891142561,2.528761386871338,0.8265845775604248
1,128,11,13,0.0006139988299443123,0.0006139988299443123,2.306222359339396,0.8179757595062256
1,128,11,14,0.0005850563029291848,0.0005850563029291848,2.1807309786478677,0.8191561698913574
1,128,11,15,0.0005080235058552558,0.0005080235058552558,2.9927958647410073,0.8207094669342041
1,128,11,16,0.0005815094956142567,0.0005815094956142567,2.967970689137777,0.823145866394043
1,128,11,17,0.00047015683034190103,0.00047015683034190103,2.484109958012899,0.8236415386199951
1,128,11,18,0.0005412819076885718,0.0005412819076885718,1.951738953590393,0.8274011611938477
1,128,11,19,0.00043678133284962825,0.00043678133284962825,2.940012296040853,0.8183002471923828
1,128,11,20,0.0004451360032815857,0.0004451360032815857,2.334252675374349,0.820819616317749
1,128,11,21,0.00039203564897127195,0.00039203564897127195,2.1329345703125,0.8205649852752686
1,128,11,22,0.0004138190066278126,0.0004138190066278126,1.844365119934082,0.8209655284881592
1,128,11,23,0.000413794678714878,0.000413794678714878,2.2037341594696045,0.82466721534729
1,128,11,24,0.0004032162800624965,0.0004032162800624965,1.7485665082931519,0.823817253112793
1,128,11,25,0.00035020675594110636,0.00035020675594110636,2.1049368381500244,0.8232288360595703
1,128,11,26,0.0003241780080190198,0.0003241780080190198,1.9043354193369548,0.828291654586792
1,128,11,27,0.00038802281820883084,0.00038802281820883084,1.6280096769332886,0.8195493221282959
1,128,11,28,0.00028263647381124204,0.00028263647381124204,2.166556437810262,0.8221991062164307
1,128,11,29,0.0002722973417262569,0.0002722973417262569,2.63602622350057,0.8253648281097412
1,128,11,30,0.00032022646792321705,0.00032022646792321705,1.5908520619074504,0.8270528316497803
1,128,11,31,0.0003109428061825939,0.0003109428061825939,1.3957930008570354,0.8279867172241211
1,128,11,32,0.00023867311431280294,0.00023867311431280294,1.646280566851298,0.8252038955688477
1,128,11,33,0.00036080084962950395,0.00036080084962950395,1.713510553042094,0.8262233734130859
1,128,11,34,0.000289577571197916,0.000289577571197916,1.6642727454503377,0.8253684043884277
1,128,11,35,0.00018889436167848246,0.00018889436167848246,1.3239463567733765,0.8191146850585938
1,128,11,36,0.00025458642970070607,0.00025458642970070607,1.8182748953501384,0.8198139667510986
1,128,11,37,0.0002735700589465988,0.0002735700589465988,1.6060577630996704,0.8199419975280762
1,128,11,38,0.00025354434846358754,0.00025354434846358754,1.3316260973612468,0.8206765651702881
1,128,11,39,0.00022360904342197315,0.00022360904342197315,1.4167852401733398,0.822533130645752
1,128,11,40,0.00023388583647074862,0.00023388583647074862,1.199244459470113,0.8220245838165283
1,128,11,41,0.00023939044230600364,0.00023939044230600364,1.7492408752441406,0.8200006484985352
1,128,11,42,0.0002090196529761933,0.0002090196529761933,1.3292572895685832,0.827284574508667
1,128,11,43,0.00021692238757150978,0.00021692238757150978,1.5649909575780232,0.8247649669647217
1,128,11,44,0.0002129584575024953,0.0002129584575024953,1.5039321184158325,0.8263444900512695
1,128,11,45,0.0002064430843151573,0.0002064430843151573,1.74006986618042,0.8253707885742188
1,128,11,46,0.00017828894138287145,0.00017828894138287145,1.2856661876042683,0.8269104957580566
1,128,11,47,0.00022225408254341385,0.00022225408254341385,1.2539470195770264,0.8193573951721191
1,128,11,48,0.00018159956333468522,0.00018159956333468522,1.220628023147583,0.8197243213653564
1,128,11,49,0.00017364177050361324,0.00017364177050361324,1.8375627199808757,0.8186578750610352
1,128,11,50,0.0001949991364290034,0.0001949991364290034,1.5031710465749104,0.8189435005187988
1,128,22,1,0.07802555583031111,0.07802555583031111,8.730886300404867,0.8253614902496338
1,128,22,2,0.003850425209683872,0.003850425209683872,5.7278211911519366,0.8277914524078369
1,128,22,3,0.002151841712498684,0.002151841712498684,4.877181529998779,0.8246688842773438
1,128,22,4,0.001668711691695023,0.001668711691695023,4.717617193857829,0.8252081871032715
1,128,22,5,0.0014315270565164206,0.0014315270565164206,4.0284608999888105,0.8235025405883789
1,128,22,6,0.0012600863818640722,0.0012600863818640722,4.307154099146525,0.8240463733673096
1,128,22,7,0.0010833084596664619,0.0010833084596664619,3.5792712370554605,0.8238470554351807
1,128,22,8,0.0010301793722018084,0.0010301793722018084,3.267454147338867,0.8236711025238037
1,128,22,9,0.0010361209841818666,0.0010361209841818666,4.175253709157308,0.8207399845123291
1,128,22,10,0.0008055718035071825,0.0008055718035071825,2.7134311199188232,0.8222782611846924
1,128,22,11,0.0007308251129005141,0.0007308251129005141,3.3417255878448486,0.8246588706970215
1,128,22,12,0.0006771716469834436,0.0006771716469834436,2.9379377365112305,0.818178653717041
1,128,22,13,0.0006288408288762866,0.0006288408288762866,2.7537118593851724,0.8173849582672119
1,128,22,14,0.0006233170872608086,0.0006233170872608086,2.3237434228261313,0.8182721138000488
1,128,22,15,0.0004941912579106487,0.0004941912579106487,2.401116371154785,0.8172509670257568
1,128,22,16,0.0005925518265314074,0.0005925518265314074,2.207977215449015,0.819683313369751
1,128,22,17,0.0004472821103111344,0.0004472821103111344,1.9934271971384685,0.8207671642303467
1,128,22,18,0.0004914605308919651,0.0004914605308919651,2.0123825867970786,0.8229115009307861
1,128,22,19,0.0004702494259565467,0.0004702494259565467,2.1367921034495034,0.8242616653442383
1,128,22,20,0.0003791979447479204,0.0003791979447479204,1.841981331507365,0.8229031562805176
1,128,22,21,0.00045808595770365824,0.00045808595770365824,2.3768320878346763,0.8246488571166992
1,128,22,22,0.0004137923760731537,0.0004137923760731537,1.7865831851959229,0.8253965377807617
1,128,22,23,0.00037140438589660475,0.00037140438589660475,1.779310901959737,0.8263676166534424
1,128,22,24,0.00043941465426079924,0.00043941465426079924,1.8894356886545818,0.8263077735900879
1,128,22,25,0.0002970543047331814,0.0002970543047331814,1.871526837348938,0.8270277976989746
1,128,22,26,0.00037629459211383827,0.00037629459211383827,1.282327691713969,0.8189041614532471
1,128,22,27,0.0002933783722735217,0.0002933783722735217,2.1518731911977134,0.8188827037811279
1,128,22,28,0.00042994634302219204,0.00042994634302219204,1.4458248217900593,0.8197028636932373
1,128,22,29,0.00024969117063504924,0.00024969117063504924,1.6092843214670818,0.822131872177124
1,128,22,30,0.0002729683181261973,0.0002729683181261973,1.5579510927200317,0.8204174041748047
1,128,22,31,0.00032110291751825183,0.00032110291751825183,1.4007391929626465,0.8220348358154297
1,128,22,32,0.00027377788328200315,0.00027377788328200315,1.544747789700826,0.8219573497772217
1,128,22,33,0.00029618787431894423,0.00029618787431894423,1.2796754042307537,0.8202049732208252
1,128,22,34,0.00024073544684370793,0.00024073544684370793,1.2397833267847698,0.821246862411499
1,128,22,35,0.0002631435511031838,0.0002631435511031838,1.5735081831614177,0.829235315322876
1,128,22,36,0.00027722012603201025,0.00027722012603201025,2.7703259785970054,0.829981803894043
1,128,22,37,0.00023840652196246973,0.00023840652196246973,2.545163631439209,0.8284642696380615
1,128,22,38,0.0002603537317981548,0.0002603537317981548,2.443642536799113,0.8280854225158691
1,128,22,39,0.0002558727467269225,0.0002558727467269225,1.2370129823684692,0.8276700973510742
1,128,22,40,0.0002323470460899493,0.0002323470460899493,2.091955820719401,0.819528341293335
1,128,22,41,0.00024147015843318454,0.00024147015843318454,1.3987576564153035,0.8219785690307617
1,128,22,42,0.0002806822022704267,0.0002806822022704267,1.2002147833506267,0.8216593265533447
1,128,22,43,0.00018615646961959637,0.00018615646961959637,1.538610577583313,0.8223168849945068
1,128,22,44,0.0001731488906777085,0.0001731488906777085,1.8353805939356487,0.8245878219604492
1,128,22,45,0.00021784742577753846,0.00021784742577753846,2.16603954633077,0.8246250152587891
1,128,22,46,0.00020698432486953132,0.00020698432486953132,1.5542742411295574,0.824324369430542
1,128,22,47,0.00016644706962599457,0.00016644706962599457,1.3223225673039753,0.8214638233184814
1,128,22,48,0.00021695602862830678,0.00021695602862830678,2.8244330088297525,0.8235971927642822
1,128,22,49,0.00019820643443685553,0.00019820643443685553,0.9509628613789877,0.7899050712585449
1,128,22,50,0.00017240492946862647,0.00017240492946862647,1.1351991494496663,0.7812445163726807
1,128,22,51,0.00018123562576026893,0.00018123562576026893,1.6607192754745483,0.7824254035949707
1,128,22,52,0.00019579476890387387,0.00019579476890387387,1.2246199051539104,0.7802503108978271
1,128,22,53,0.00021707031538744997,0.00021707031538744997,2.2987860838572183,0.7795755863189697
1,128,22,54,0.00017206690020479676,0.00017206690020479676,1.024785319964091,0.78104567527771
1,128,22,55,0.0001452671491641662,0.0001452671491641662,1.17799178759257,0.7746279239654541
1,128,22,56,0.0001795559348108979,0.0001795559348108979,1.0435284773508708,0.7762093544006348
1,128,22,57,0.00015585277267869105,0.00015585277267869105,1.1962714195251465,0.7944140434265137
1,128,22,58,0.0001699847180134384,0.0001699847180134384,0.9822968045870463,0.8189363479614258
1,128,22,59,0.0001604223319182305,0.0001604223319182305,1.2539274295171101,0.776202917098999
1,128,33,1,0.06961002495698332,0.06961002495698332,8.986656506856283,0.8159811496734619
1,128,33,2,0.003624303613593233,0.003624303613593233,5.73998228708903,0.7781472206115723
1,128,33,3,0.00219421139341806,0.00219421139341806,4.876247406005859,0.7761397361755371
1,128,33,4,0.0015749649321203723,0.0015749649321203723,4.1905678908030195,0.7759146690368652
1,128,33,5,0.0014283722045702614,0.0014283722045702614,3.628468116124471,0.7779972553253174
1,128,33,6,0.0012664869656019704,0.0012664869656019704,3.1878090699513755,0.7792608737945557
1,128,33,7,0.0010358356972527466,0.0010358356972527466,3.1231069564819336,0.7787256240844727
1,128,33,8,0.001051549439966436,0.001051549439966436,2.8632193406422934,0.7800815105438232
1,128,33,9,0.0009749857140772368,0.0009749857140772368,2.950188716252645,0.7791929244995117
1,128,33,10,0.0007857929529072687,0.0007857929529072687,2.9377071062723794,0.7805945873260498
1,128,33,11,0.000749973105081399,0.000749973105081399,2.393775224685669,0.7870063781738281
1,128,33,12,0.000709349107848094,0.000709349107848094,2.844734271367391,0.7774739265441895
1,128,33,13,0.0005927161774060904,0.0005927161774060904,2.630291144053141,0.7769091129302979
1,128,33,14,0.0005882947145694705,0.0005882947145694705,2.399819294611613,0.7793116569519043
1,128,33,15,0.0005994699892808438,0.0005994699892808438,3.185385783513387,0.7768135070800781
1,128,33,16,0.0004850712494067084,0.0004850712494067084,1.758074124654134,0.7782337665557861
1,128,33,17,0.0004991118590664897,0.0004991118590664897,2.672057310740153,0.7787761688232422
1,128,33,18,0.0004545524563605544,0.0004545524563605544,2.044066230456034,0.7787661552429199
1,128,33,19,0.000487759428801033,0.000487759428801033,1.9697604179382324,0.7820079326629639
1,128,33,20,0.000389202827774138,0.000389202827774138,1.8933560053507488,0.7812318801879883
1,128,33,21,0.00040501407051902154,0.00040501407051902154,1.7430164416631062,0.7805502414703369
1,128,33,22,0.0003974144795735088,0.0003974144795735088,2.497957150141398,0.7813570499420166
1,128,33,23,0.0004794334422995732,0.0004794334422995732,2.4369828701019287,0.7822318077087402
1,128,33,24,0.0003345361152984624,0.0003345361152984624,1.4355368614196777,0.7828168869018555
1,128,33,25,0.000314856492114606,0.000314856492114606,2.311034679412842,0.785660982131958
1,128,33,26,0.000336555498471548,0.000336555498471548,2.212796926498413,0.7832310199737549
1,128,33,27,0.00034271449292710477,0.00034271449292710477,1.7046655813852947,0.7840979099273682
1,128,33,28,0.00031847502964483637,0.00031847502964483637,1.7034415006637573,0.7836012840270996
1,128,33,29,0.0002748533940584499,0.0002748533940584499,1.4390969673792522,0.7834572792053223
1,128,33,30,0.00029807290700487,0.00029807290700487,1.9401700099309285,0.78243088722229
1,128,33,31,0.00029970833182355863,0.00029970833182355863,1.7488564650217693,0.7777082920074463
1,128,33,32,0.0002477063683455494,0.0002477063683455494,1.4715686639149983,0.7769730091094971
1,128,33,33,0.0002934920245212004,0.0002934920245212004,1.607161521911621,0.7767269611358643
1,128,33,34,0.0002450478605637245,0.0002450478605637245,1.736287792523702,0.7765915393829346
2,51,11,1,0.2049031468290674,0.2049031468290674,23.547142664591473,0.812903881072998
2,51,11,2,0.0316705061840327,0.0316705061840327,18.70635986328125,0.7788486480712891
2,51,11,3,0.022319823473596265,0.022319823473596265,17.3396790822347,0.8073759078979492
2,51,11,4,0.018588846344590473,0.018588846344590473,15.385939598083496,0.7844233512878418
2,51,11,5,0.016173840081842427,0.016173840081842427,14.242966334025065,0.7643923759460449
2,51,11,6,0.014858505988335102,0.014858505988335102,13.836966514587402,0.7651057243347168
2,51,11,7,0.013634137857113374,0.013634137857113374,13.367137908935547,0.764028787612915
2,51,11,8,0.012823590148467552,0.012823590148467552,13.808494249979654,0.7656512260437012
2,51,11,9,0.012489959081847154,0.012489959081847154,12.799110730489096,0.763993501663208
2,51,11,10,0.012005839824234024,0.012005839824234024,12.46915372212728,0.7668488025665283
2,51,11,11,0.011703166468622071,0.011703166468622071,12.345088958740234,0.7704195976257324
2,51,11,12,0.011522274515195413,0.011522274515195413,12.319781303405762,0.7683050632476807
2,51,11,13,0.011263488998926614,0.011263488998926614,12.288571039835611,0.7668106555938721
2,51,11,14,0.010943233715684226,0.010943233715684226,12.07097307840983,0.767409086227417
2,51,11,15,0.010781690424508498,0.010781690424508498,11.7796417872111,0.762702465057373
2,51,11,16,0.010720794178085045,0.010720794178085045,12.028712272644043,0.7638709545135498
2,51,11,17,0.010561092583280219,0.010561092583280219,11.850834210713705,0.7639796733856201
2,51,11,18,0.010321975210277935,0.010321975210277935,12.013840357462565,0.7647614479064941
2,51,11,19,0.010238120205293785,0.010238120205293785,11.929607709248861,0.7641222476959229
2,51,11,20,0.010114435742595749,0.010114435742595749,12.049285570780436,0.76399827003479
2,51,11,21,0.010053694609217765,0.010053694609217765,12.466167767842611,0.7639539241790771
2,51,11,22,0.010050249854057884,0.010050249854057884,11.509313901265463,0.7662825584411621
2,51,11,23,0.00993449812198886,0.00993449812198886,11.498388290405273,0.7678682804107666
2,51,11,24,0.009859974999100353,0.009859974999100353,11.847553571065268,0.7705645561218262
2,51,11,25,0.009731048444528163,0.009731048444528163,11.63115660349528,0.7696316242218018
2,51,11,26,0.009754912781246593,0.009754912781246593,12.74887720743815,0.7691326141357422
2,51,11,27,0.009628283752376635,0.009628283752376635,11.581568082173666,0.7693288326263428
2,51,11,28,0.009546005667858484,0.009546005667858484,13.16093921661377,0.7632758617401123
2,51,11,29,0.009589184378311157,0.009589184378311157,11.513246218363443,0.7641334533691406
2,51,11,30,0.0094508017057532,0.0094508017057532,11.48474152882894,0.7644364833831787
2,51,11,31,0.009405003681952316,0.009405003681952316,11.416097323099772,0.765357494354248
2,51,11,32,0.009426357061639547,0.009426357061639547,11.389201482137045,0.7654361724853516
2,51,11,33,0.00940895112183537,0.00940895112183537,11.363967577616373,0.7651796340942383
2,51,11,34,0.009315517167433689,0.009315517167433689,11.593445460001627,0.767047643661499
2,51,11,35,0.009254140520010916,0.009254140520010916,11.381795247395834,0.7697033882141113
2,51,11,36,0.009236104518061512,0.009236104518061512,11.156343777974447,0.770479679107666
2,51,11,37,0.009172779749361365,0.009172779749361365,11.531817118326822,0.7693214416503906
2,51,11,38,0.009130085304223993,0.009130085304223993,11.350778897603353,0.7724936008453369
2,51,11,39,0.009062856658142103,0.009062856658142103,11.269887288411459,0.7677371501922607
2,51,11,40,0.009081452883134207,0.009081452883134207,11.428894996643066,0.7635748386383057
2,51,11,41,0.008994617716919028,0.008994617716919028,11.323907216389975,0.7632207870483398
2,51,11,42,0.00897884861316478,0.00897884861316478,11.11550235748291,0.7631011009216309
2,51,11,43,0.008970382406613991,0.008970382406613991,11.325402895609537,0.7631449699401855
2,51,11,44,0.008923675246046404,0.008923675246046404,11.475310325622559,0.7668259143829346
2,51,11,45,0.008905737719873795,0.008905737719873795,11.403389930725098,0.7665748596191406
2,51,11,46,0.008875057248497326,0.008875057248497326,11.657170931498209,0.7700049877166748
2,51,11,47,0.008843057000348837,0.008843057000348837,11.279014587402344,0.7680857181549072
2,51,11,48,0.008784285628417713,0.008784285628417713,11.039798100789389,0.7672996520996094
2,51,11,49,0.008802641053829061,0.008802641053829061,11.375160217285156,0.768810510635376
2,51,11,50,0.008751653722318467,0.008751653722318467,11.144275665283203,0.7685728073120117
2,51,11,51,0.00869952156290675,0.00869952156290675,11.361098289489746,0.7682812213897705
2,51,11,52,0.008700453284619613,0.008700453284619613,11.100690523783365,0.7678108215332031
2,51,11,53,0.008676144765334183,0.008676144765334183,11.175408999125162,0.7667391300201416
2,51,11,54,0.00858045941783806,0.00858045941783806,11.163440704345703,0.7637474536895752
2,51,11,55,0.00867780852826674,0.00867780852826674,11.109137535095215,0.7634952068328857
2,51,11,56,0.008589662093875473,0.008589662093875473,11.256292025248209,0.7634098529815674
2,51,11,57,0.008612076122534984,0.008612076122534984,11.01395575205485,0.7634270191192627
2,51,11,58,0.008563946768862718,0.008563946768862718,11.68799908955892,0.7653145790100098
2,51,11,59,0.008538707015575485,0.008538707015575485,11.464014371236166,0.7689023017883301
2,51,11,60,0.008534302189796684,0.008534302189796684,11.261248588562012,0.7678718566894531
2,51,11,61,0.008540748876413363,0.008540748876413363,11.086431503295898,0.7729377746582031
2,51,11,62,0.00851661574549937,0.00851661574549937,11.013758341471354,0.7745437622070312
2,51,11,63,0.008484275219289296,0.008484275219289296,11.026541074117025,0.7631268501281738
2,51,11,64,0.008419870413140204,0.008419870413140204,11.211170196533203,0.7605178356170654
2,51,11,65,0.008451328019388797,0.008451328019388797,11.05290158589681,0.7625675201416016
2,51,11,66,0.008397263777479649,0.008397263777479649,11.115387280782064,0.764775276184082
2,51,11,67,0.00836939793371597,0.00836939793371597,10.919402440388998,0.7652192115783691
2,51,11,68,0.008368350913745156,0.008368350913745156,11.056623458862305,0.7656192779541016
2,51,11,69,0.008389491403257149,0.008389491403257149,10.982548077901205,0.7652318477630615
2,51,11,70,0.008326675672604318,0.008326675672604318,11.045625686645508,0.7664895057678223
2,51,11,71,0.008342986096019587,0.008342986096019587,11.07943312327067,0.7653093338012695
2,51,11,72,0.008322897789862312,0.008322897789862312,11.056718190511068,0.7678639888763428
2,51,11,73,0.00833179403984408,0.00833179403984408,10.929526011149088,0.7683267593383789
2,51,11,74,0.008378320435259377,0.008378320435259377,11.029314994812012,0.7638022899627686
2,51,11,75,0.008285558677127474,0.008285558677127474,10.991734504699707,0.76194167137146
2,51,11,76,0.008261007551301157,0.008261007551301157,11.14955965677897,0.7607395648956299
2,51,11,77,0.008250493065186479,0.008250493065186479,11.162464141845703,0.7628743648529053
2,51,22,1,0.18586259358001941,0.18586259358001941,22.985497792561848,0.7628042697906494
2,51,22,2,0.029235074543252134,0.029235074543252134,17.935769081115723,0.7634332180023193
2,51,22,3,0.021011540465906,0.021011540465906,16.846640586853027,0.7624917030334473
2,51,22,4,0.01760303590410833,0.01760303590410833,15.475892384847006,0.8095533847808838
2,51,22,5,0.015449442101693316,0.015449442101693316,13.938762982686361,0.7669296264648438
2,51,22,6,0.014359139247586649,0.014359139247586649,13.821344375610352,0.7979466915130615
2,51,22,7,0.013186075782214993,0.013186075782214993,13.047663052876791,0.7682604789733887
2,51,22,8,0.012852120633277427,0.012852120633277427,13.160622596740723,0.772019624710083
2,51,22,9,0.012306170123233123,0.012306170123233123,13.258805274963379,0.7758820056915283
2,51,22,10,0.011956353117988398,0.011956353117988398,12.636748631795248,0.776803731918335
2,51,22,11,0.011496614129618887,0.011496614129618887,13.034543673197428,0.7666463851928711
2,51,22,12,0.011241756468550877,0.011241756468550877,12.503165245056152,0.7658908367156982
2,51,22,13,0.01124175622338731,0.01124175622338731,12.082743962605795,0.7657053470611572
2,51,22,14,0.010843065929827827,0.010843065929827827,12.051790873209635,0.7697677612304688
2,51,22,15,0.010648701236064562,0.010648701236064562,11.834743817647299,0.7684450149536133
2,51,22,16,0.01063252513986051,0.01063252513986051,11.751478830973307,0.76918625831604
2,51,22,17,0.010383103151221193,0.010383103151221193,12.845534642537435,0.7668838500976562
2,51,22,18,0.010303200299539163,0.010303200299539163,11.946349461873373,0.7711822986602783
2,51,22,19,0.010263282464844075,0.010263282464844075,11.65268580118815,0.7727932929992676
2,51,22,20,0.01008774417962275,0.01008774417962275,11.561975797017416,0.7751564979553223
2,51,22,21,0.009975857377937289,0.009975857377937289,11.766229629516602,0.7732536792755127
2,51,22,22,0.009831876851271473,0.009831876851271473,11.89694849650065,0.7661707401275635
2,51,22,23,0.009898791873728913,0.009898791873728913,11.443595250447592,0.7670032978057861
2,51,22,24,0.009796839042971834,0.009796839042971834,11.474770228068033,0.7661371231079102
2,51,22,25,0.009692516480609894,0.009692516480609894,11.652347246805826,0.7668163776397705
2,51,22,26,0.009724147265020572,0.009724147265020572,11.313198725382486,0.7716355323791504
2,51,22,27,0.009591132027947645,0.009591132027947645,11.588810602823893,0.768017053604126
2,51,22,28,0.009529254302818979,0.009529254302818979,11.523222287495932,0.7685260772705078
2,51,22,29,0.009516843480998306,0.009516843480998306,11.346602121988932,0.7679851055145264
2,51,22,30,0.009427220253408386,0.009427220253408386,12.495234807332357,0.7689566612243652
2,51,22,31,0.009376367206504362,0.009376367206504362,11.371088027954102,0.7686910629272461
2,51,22,32,0.009378159500921614,0.009378159500921614,11.472057024637857,0.7642481327056885
2,51,22,33,0.009306668860757093,0.009306668860757093,11.36132844289144,0.7634661197662354
2,51,22,34,0.009336868873580597,0.009336868873580597,11.428838411966959,0.7647700309753418
2,51,22,35,0.009222631630477277,0.009222631630477277,11.356366793314615,0.7656302452087402
2,51,22,36,0.009193477279881844,0.009193477279881844,11.275282224019369,0.7662081718444824
2,51,22,37,0.009110911858431027,0.009110911858431027,11.26797898610433,0.7664828300476074
2,51,22,38,0.009163385396150582,0.009163385396150582,11.238602956136068,0.7686111927032471
2,51,22,39,0.009075100590470418,0.009075100590470418,11.31475830078125,0.7675044536590576
2,51,22,40,0.009044431170888162,0.009044431170888162,11.059251149495443,0.7682616710662842
2,51,22,41,0.009021904942897981,0.009021904942897981,11.159856160481771,0.768437385559082
2,51,22,42,0.00894755239181376,0.00894755239181376,11.37531852722168,0.7672152519226074
2,51,22,43,0.008954099208687583,0.008954099208687583,11.301699956258139,0.7703475952148438
2,51,22,44,0.008885746033201487,0.008885746033201487,11.012150446573893,0.7688734531402588
2,51,22,45,0.008863944675396668,0.008863944675396668,11.396973927815756,0.7691795825958252
2,51,22,46,0.008869086737919413,0.008869086737919413,11.748698870340982,0.7701642513275146
2,51,22,47,0.008819405397588617,0.008819405397588617,11.16692320505778,0.7646660804748535
2,51,22,48,0.008746456911332941,0.008746456911332941,11.678712526957193,0.7636427879333496
2,51,22,49,0.008752273120595976,0.008752273120595976,11.048113822937012,0.7637414932250977
2,51,22,50,0.008744872649787756,0.008744872649787756,11.100336392720541,0.7653553485870361
2,51,22,51,0.008713830251210813,0.008713830251210813,11.275408426920572,0.7630598545074463
2,51,22,52,0.008727969677990263,0.008727969677990263,11.375764528910318,0.763566255569458
2,51,22,53,0.008658836035126669,0.008658836035126669,11.030485471089682,0.764230489730835
2,51,22,54,0.008647716583244586,0.008647716583244586,11.444576899210611,0.7635791301727295
2,51,33,1,0.19465803847099575,0.19465803847099575,24.509777069091797,0.771571159362793
2,51,33,2,0.029901800354281933,0.029901800354281933,18.16236750284831,0.7722876071929932
2,51,33,3,0.02156924730522579,0.02156924730522579,16.245071093241375,0.7728900909423828
2,51,33,4,0.01775785144358682,0.01775785144358682,15.16332753499349,0.7688696384429932
2,51,33,5,0.015674519211346848,0.015674519211346848,14.875386238098145,0.7693212032318115
2,51,33,6,0.014387561440360202,0.014387561440360202,14.30405044555664,0.7631139755249023
2,51,33,7,0.013325953147528068,0.013325953147528068,13.716850916544596,0.7630863189697266
2,51,33,8,0.012801194053747203,0.012801194053747203,12.83093007405599,0.763592004776001
2,51,33,9,0.0122564048693182,0.0122564048693182,12.535589536031088,0.765089750289917
2,51,33,10,0.01188577777058795,0.01188577777058795,12.801737467447916,0.7695755958557129
2,51,33,11,0.011543145311329616,0.011543145311329616,14.989781379699707,0.7725956439971924
2,51,33,12,0.011347753393432398,0.011347753393432398,12.546040217081705,0.7669558525085449
2,51,33,13,0.011052100946842716,0.011052100946842716,12.7486359278361,0.7656416893005371
2,51,33,14,0.010979388644664667,0.010979388644664667,12.274040857950846,0.767268180847168
2,51,33,15,0.010679854177249473,0.010679854177249473,12.084625562032064,0.7669804096221924
2,51,33,16,0.010607742006332879,0.010607742006332879,11.86801846822103,0.7682199478149414
2,51,33,17,0.010401231792858573,0.010401231792858573,11.91470464070638,0.7723391056060791
2,51,33,18,0.01034117881642179,0.01034117881642179,11.780495325724283,0.7635431289672852
2,51,33,19,0.010269170884120713,0.010269170884120713,11.665959040323893,0.7645132541656494
2,51,33,20,0.010024373434531842,0.010024373434531842,12.037642161051432,0.764876127243042
2,51,33,21,0.010060385741849533,0.010060385741849533,12.284745852152506,0.7673318386077881
2,51,33,22,0.009959708019511036,0.009959708019511036,11.505914370218912,0.7718451023101807
2,51,33,23,0.009899634520342367,0.009899634520342367,11.774370193481445,0.770958423614502
2,51,33,24,0.009742592174386423,0.009742592174386423,11.561166763305664,0.7694313526153564
2,51,33,25,0.009742593708901067,0.009742593708901067,11.817099253336588,0.7712407112121582
2,51,33,26,0.0096221093378399,0.0096221093378399,11.674565315246582,0.7688279151916504
2,51,33,27,0.009567317552864552,0.009567317552864552,11.70376968383789,0.7676546573638916
2,51,33,28,0.009482673653379011,0.009482673653379011,12.308144251505533,0.7646756172180176
2,51,33,29,0.009455885901078463,0.009455885901078463,11.477483749389648,0.7664048671722412
2,51,33,30,0.009495903770730832,0.009495903770730832,11.39457925160726,0.7668931484222412
2,51,33,31,0.009410763742405185,0.009410763742405185,11.942761421203613,0.7629585266113281
2,51,33,32,0.009382612556278896,0.009382612556278896,11.338962237040201,0.7632408142089844
2,51,33,33,0.009244100074096916,0.009244100074096916,11.54156525929769,0.7644598484039307
2,51,33,34,0.00921365109617623,0.00921365109617623,11.431966463724772,0.7648758888244629
2,51,33,35,0.00920310290306089,0.00920310290306089,11.389934221903482,0.7640135288238525
2,51,33,36,0.00921608272485471,0.00921608272485471,11.471765518188477,0.7657527923583984
2,51,33,37,0.009061950850517251,0.009061950850517251,11.57922077178955,0.768488883972168
2,51,33,38,0.009097394720317847,0.009097394720317847,11.347825050354004,0.7677278518676758
2,51,33,39,0.009056329555259375,0.009056329555259375,11.376620928446451,0.7675266265869141
2,51,33,40,0.008974304273993637,0.008974304273993637,12.804303169250488,0.7688553333282471
2,51,33,41,0.009006551557323666,0.009006551557323666,11.1392609278361,0.7690184116363525
2,51,33,42,0.00889893506397979,0.00889893506397979,11.447634061177572,0.7672555446624756
2,51,33,43,0.00894706357153877,0.00894706357153877,11.164013226826986,0.7673039436340332
2,51,33,44,0.008823604460500695,0.008823604460500695,11.467794100443522,0.763427734375
2,51,33,45,0.008826593594120316,0.008826593594120316,11.041305859883627,0.7617757320404053
2,51,33,46,0.008755830576251684,0.008755830576251684,11.117639541625977,0.7635495662689209
2,51,33,47,0.008795459834742173,0.008795459834742173,11.294896761576334,0.7632782459259033
2,51,33,48,0.008717635988047045,0.008717635988047045,11.140329996744791,0.7617270946502686
2,51,33,49,0.008720255841054082,0.008720255841054082,11.087800661722818,0.76265549659729
2,51,33,50,0.008749103637779936,0.008749103637779936,10.97896416982015,0.7625589370727539
2,51,33,51,0.008645660140780347,0.008645660140780347,11.650569279988607,0.7634782791137695
2,51,33,52,0.008607173604624612,0.008607173604624612,11.206082026163736,0.7628121376037598
2,51,33,53,0.008676650820308952,0.008676650820308952,11.063633918762207,0.7624759674072266
2,51,33,54,0.008587212607497723,0.008587212607497723,11.05847136179606,0.7640163898468018
2,51,33,55,0.008552478367752765,0.008552478367752765,11.080309549967447,0.7660229206085205
2,51,33,56,0.0085656851613042,0.0085656851613042,10.996166865030924,0.7682802677154541
2,51,33,57,0.008546576570617827,0.008546576570617827,11.132056872049967,0.7652027606964111
2,51,33,58,0.008505114991767974,0.008505114991767974,11.210868835449219,0.7668166160583496
2,51,33,59,0.008492705947756887,0.008492705947756887,11.122858047485352,0.7684566974639893
2,51,33,60,0.008476979365306241,0.008476979365306241,10.979275703430176,0.7677440643310547
2,77,11,1,0.13483155232496907,0.13483155232496907,16.47423044840495,0.82977294921875
2,77,11,2,0.011175375567064478,0.011175375567064478,11.01211166381836,0.765127420425415
2,77,11,3,0.005929163598827719,0.005929163598827719,8.379674275716146,0.7647857666015625
2,77,11,4,0.00417661629179956,0.00417661629179956,7.294254144032796,0.7657167911529541
2,77,11,5,0.0032083248645949206,0.0032083248645949206,6.248698870340983,0.7675795555114746
2,77,11,6,0.0026861930486146678,0.0026861930486146678,6.477869510650635,0.7669782638549805
2,77,11,7,0.0023800206015986746,0.0023800206015986746,5.718979517618815,0.7667069435119629
2,77,11,8,0.002137623212702369,0.002137623212702369,5.0578023592631025,0.7660493850708008
2,77,11,9,0.0019267182771967094,0.0019267182771967094,6.387338638305664,0.7734079360961914
2,77,11,10,0.0018125209965956894,0.0018125209965956894,5.017485857009888,0.7719264030456543
2,77,11,11,0.001648164628485418,0.001648164628485418,4.642628192901611,0.7724978923797607
2,77,11,12,0.0016172683516922398,0.0016172683516922398,5.161464850107829,0.7706558704376221
2,77,11,13,0.0015251278881182413,0.0015251278881182413,4.60797913869222,0.7687766551971436
2,77,11,14,0.0013981569343677052,0.0013981569343677052,4.536215464274089,0.7708084583282471
2,77,11,15,0.0013581192003933782,0.0013581192003933782,4.152360121409099,0.7694287300109863
2,77,11,16,0.0012778636172001234,0.0012778636172001234,4.3460930188496905,0.764270544052124
2,77,11,17,0.0012258653767985466,0.0012258653767985466,4.025996446609497,0.7641646862030029
2,77,11,18,0.0012027884823797841,0.0012027884823797841,4.347865660985311,0.767585277557373
2,77,11,19,0.001137193600795894,0.001137193600795894,4.061564048131307,0.7655243873596191
2,77,11,20,0.0010898062683878105,0.0010898062683878105,3.9935216108957925,0.7657225131988525
2,77,11,21,0.001129447381854144,0.001129447381854144,4.461161057154338,0.7660419940948486
2,77,11,22,0.0010897538038983456,0.0010897538038983456,3.4443938732147217,0.7690010070800781
2,77,11,23,0.0010042447843633736,0.0010042447843633736,3.6142311890920005,0.7718148231506348
2,77,11,24,0.0009986395708170912,0.0009986395708170912,4.372932354609172,0.7741549015045166
2,77,11,25,0.0009544519927123947,0.0009544519927123947,3.563913265864054,0.7702348232269287
2,77,11,26,0.0009480463998634398,0.0009480463998634398,3.4718451499938965,0.7659919261932373
2,77,11,27,0.0009284122297364656,0.0009284122297364656,3.3671113650004068,0.7662312984466553
2,77,11,28,0.0009111517528389665,0.0009111517528389665,4.361064592997233,0.76499342918396
2,77,11,29,0.0008845353393664473,0.0008845353393664473,4.082546631495158,0.7664549350738525
2,77,11,30,0.0008519943451780204,0.0008519943451780204,3.3693621158599854,0.7657339572906494
2,77,11,31,0.0008437417868568141,0.0008437417868568141,3.4704389572143555,0.7689528465270996
2,77,11,32,0.0008855687055298028,0.0008855687055298028,3.2944084803263345,0.7760968208312988
2,77,11,33,0.0008090124767308047,0.0008090124767308047,3.687880754470825,0.7741172313690186
2,77,11,34,0.0008146708282189112,0.0008146708282189112,3.582245349884033,0.7692973613739014
2,77,11,35,0.0007995145947950478,0.0007995145947950478,3.090057134628296,0.7741520404815674
2,77,11,36,0.0007670932209469007,0.0007670932209469007,3.090866804122925,0.7662150859832764
2,77,11,37,0.000761317125825065,0.000761317125825065,3.358808914820353,0.7648758888244629
2,77,11,38,0.0008483705519889907,0.0008483705519889907,3.1433022022247314,0.7651481628417969
2,77,11,39,0.0007158329591332945,0.0007158329591332945,3.5639029343922934,0.7677791118621826
2,77,11,40,0.0007432201947496657,0.0007432201947496657,3.2280468940734863,0.7699570655822754
2,77,11,41,0.0007131371777362668,0.0007131371777362668,3.3047935167948403,0.7710373401641846
2,77,11,42,0.0007071332755348351,0.0007071332755348351,2.9482725461324057,0.7744839191436768
2,77,11,43,0.0007334502063408333,0.0007334502063408333,3.0346153577168784,0.768582820892334
2,77,11,44,0.0006880222777327758,0.0006880222777327758,3.322286526362101,0.7691693305969238
2,77,11,45,0.0006827754280597187,0.0006827754280597187,3.6697728633880615,0.7713894844055176
2,77,11,46,0.0006788009572583572,0.0006788009572583572,3.5127979119618735,0.7737164497375488
2,77,11,47,0.0006756239789212945,0.0006756239789212945,3.1688175201416016,0.7726707458496094
2,77,11,48,0.000666988291749641,0.000666988291749641,2.7496066888173423,0.7731318473815918
2,77,11,49,0.0006531690100482987,0.0006531690100482987,2.972703138987223,0.7736837863922119
2,77,11,50,0.0006597651866448514,0.0006597651866448514,2.8701353073120117,0.7736110687255859
2,77,11,51,0.000643840226926654,0.000643840226926654,3.6761817137400308,0.7663881778717041
2,77,11,52,0.0006394788801683529,0.0006394788801683529,2.717800498008728,0.7659945487976074
2,77,11,53,0.0006298804131521878,0.0006298804131521878,2.815115054448446,0.765404224395752
2,77,11,54,0.0005924866293623511,0.0005924866293623511,3.0927412509918213,0.7666213512420654
2,77,11,55,0.0006446547414879516,0.0006446547414879516,2.6164534091949463,0.7667903900146484
2,77,11,56,0.0006068701039763155,0.0006068701039763155,2.760175029436747,0.7672374248504639
2,77,11,57,0.0006018351345568937,0.0006018351345568937,2.8855055967966714,0.7657947540283203
2,77,11,58,0.0006067018251614585,0.0006067018251614585,3.017951409022013,0.7671117782592773
2,77,11,59,0.0005833685396373329,0.0005833685396373329,4.337178627649943,0.7675747871398926
2,77,11,60,0.0005795253349361974,0.0005795253349361974,3.298015038172404,0.7657866477966309
2,77,11,61,0.000596522670765228,0.000596522670765228,2.650464097658793,0.7699329853057861
2,77,11,62,0.0005771955033748547,0.0005771955033748547,2.686604301134745,0.769514799118042
2,77,11,63,0.0005843403081508296,0.0005843403081508296,2.7119824091593423,0.7711522579193115
2,77,11,64,0.0005464697928268038,0.0005464697928268038,2.882262627283732,0.7707641124725342
2,77,11,65,0.0005615841720928176,0.0005615841720928176,2.7100237607955933,0.770836591720581
2,77,22,1,0.1190738690236694,0.1190738690236694,14.671819051106771,0.7765941619873047
2,77,22,2,0.010232800344247402,0.010232800344247402,10.226188659667969,0.7675673961639404
2,77,22,3,0.005350502902256208,0.005350502902256208,8.121384302775065,0.7671537399291992
2,77,22,4,0.003771896057920665,0.003771896057920665,6.7571689287821455,0.7680327892303467
2,77,22,5,0.0031891693527411136,0.0031891693527411136,6.556573867797852,0.7675883769989014
2,77,22,6,0.0025700934832604723,0.0025700934832604723,5.762591361999512,0.7699191570281982
2,77,22,7,0.002284385312130349,0.002284385312130349,5.5297471682230634,0.771397590637207
2,77,22,8,0.0020814577277703437,0.0020814577277703437,6.4066158930460615,0.7762374877929688
2,77,22,9,0.001947024865539365,0.001947024865539365,5.197649955749512,0.7743613719940186
2,77,22,10,0.001724957293205944,0.001724957293205944,5.083479801813762,0.7719521522521973
2,77,22,11,0.0016032721396770334,0.0016032721396770334,5.252914905548096,0.7737200260162354
2,77,22,12,0.001506091832959902,0.001506091832959902,4.541830857594808,0.7723042964935303
2,77,22,13,0.0014380293685821801,0.0014380293685821801,4.338731447855632,0.7699394226074219
2,77,22,14,0.0013895027228649018,0.0013895027228649018,4.097745498021443,0.7761597633361816
2,77,22,15,0.0013437083626896991,0.0013437083626896991,4.698349555333455,0.7663519382476807
2,77,22,16,0.001249338279049963,0.001249338279049963,3.9615307648976645,0.7680814266204834
2,77,22,17,0.0012722064217367175,0.0012722064217367175,4.858880519866943,0.7671341896057129
2,77,22,18,0.0011543505493888592,0.0011543505493888592,4.026661396026611,0.7664995193481445
2,77,22,19,0.0011268926521480669,0.0011268926521480669,3.6873703002929688,0.7655203342437744
2,77,22,20,0.0011207280317276573,0.0011207280317276573,3.4883973598480225,0.7651593685150146
2,77,22,21,0.0010809709700489683,0.0010809709700489683,4.310815970102946,0.7676920890808105
2,77,22,22,0.0010819183577511335,0.0010819183577511335,3.642695426940918,0.7674145698547363
2,77,22,23,0.0009943950806096359,0.0009943950806096359,3.537571748097738,0.7664823532104492
2,77,22,24,0.0009760791674554557,0.0009760791674554557,3.4252870082855225,0.7689914703369141
2,77,22,25,0.0009509038855060098,0.0009509038855060098,3.9483203093210855,0.7735641002655029
2,77,22,26,0.0009378363445336163,0.0009378363445336163,3.551797310511271,0.7723588943481445
2,77,22,27,0.0009140145459831251,0.0009140145459831251,3.5051018397013345,0.7739725112915039
2,77,22,28,0.000871294480552269,0.000871294480552269,3.311983346939087,0.7667739391326904
2,77,22,29,0.0008858267620002573,0.0008858267620002573,3.365309715270996,0.7662520408630371
2,77,22,30,0.0008451632603541029,0.0008451632603541029,5.159972667694092,0.7679305076599121
2,77,22,31,0.0009018039419786648,0.0009018039419786648,3.1458349227905273,0.7667503356933594
2,77,22,32,0.0008174286983637394,0.0008174286983637394,3.4646522998809814,0.7677204608917236
2,77,22,33,0.0007963478630150775,0.0007963478630150775,3.4127557277679443,0.7697775363922119
2,77,22,34,0.0007833201521529217,0.0007833201521529217,3.252287228902181,0.775963306427002
2,77,22,35,0.0007856601117071165,0.0007856601117071165,3.3229407469431558,0.7759912014007568
2,77,22,36,0.0007776366806956065,0.0007776366806956065,3.2130140463511148,0.7705507278442383
2,77,22,37,0.0007420178721614038,0.0007420178721614038,2.9045464992523193,0.7722806930541992
2,77,22,38,0.0007304912212063345,0.0007304912212063345,2.932326555252075,0.7703258991241455
2,77,22,39,0.0007502633486751073,0.0007502633486751073,3.1395179430643716,0.7708034515380859
2,77,22,40,0.0007531712731244835,0.0007531712731244835,2.9205177625020347,0.7637550830841064
2,77,22,41,0.0007203804348377932,0.0007203804348377932,3.0098750591278076,0.7638411521911621
2,77,22,42,0.0007038284327186805,0.0007038284327186805,3.1369806130727134,0.7640817165374756
2,77,22,43,0.0007079204049332884,0.0007079204049332884,3.0163262685139975,0.763075590133667
2,77,22,44,0.0006986152032953814,0.0006986152032953814,2.8692851861317954,0.7630949020385742
2,77,22,45,0.0006922355870399355,0.0006922355870399355,3.324512799580892,0.7632215023040771
2,77,22,46,0.0006817436599909637,0.0006817436599909637,4.329312245051066,0.7642791271209717
2,77,22,47,0.0006768048257323319,0.0006768048257323319,2.8187808990478516,0.7660882472991943
2,77,22,48,0.0006704626651723715,0.0006704626651723715,2.87093718846639,0.7670323848724365
2,77,22,49,0.0006797413557433758,0.0006797413557433758,2.8490712642669678,0.770402193069458
2,77,22,50,0.0006316043689258749,0.0006316043689258749,2.7935895125071206,0.772418737411499
2,77,22,51,0.000639629569618453,0.000639629569618453,3.617418130238851,0.7704534530639648
2,77,22,52,0.0006094771717360354,0.0006094771717360354,3.392815430959066,0.7738254070281982
2,77,22,53,0.0006519593284420526,0.0006519593284420526,2.900168259938558,0.7723238468170166
2,77,22,54,0.0006147607521248912,0.0006147607521248912,3.0411890347798667,0.7713518142700195
2,77,22,55,0.00061714509142343,0.00061714509142343,2.8658276398976645,0.7682359218597412
2,77,22,56,0.0006096760306883316,0.0006096760306883316,2.618633588155111,0.7697534561157227
2,77,22,57,0.0006174616006249337,0.0006174616006249337,3.4154086907704673,0.7715978622436523
2,77,22,58,0.0005976767284346425,0.0005976767284346425,2.7438607215881348,0.7751438617706299
2,77,22,59,0.0006038010675653689,0.0006038010675653689,2.623154401779175,0.77189040184021
2,77,22,60,0.0005714862543325662,0.0005714862543325662,2.7694239616394043,0.7751054763793945
2,77,22,61,0.0005855574862591259,0.0005855574862591259,2.8896735509236655,0.7749671936035156
2,77,22,62,0.0005772526732950141,0.0005772526732950141,3.3245929876963296,0.7693419456481934
2,77,22,63,0.0005932791865083956,0.0005932791865083956,2.4786603450775146,0.7690229415893555
2,77,22,64,0.0006077707899576665,0.0006077707899576665,2.8921573162078857,0.7682754993438721
2,77,22,65,0.0005420647477415311,0.0005420647477415311,2.692107915878296,0.768754243850708
2,77,22,66,0.000551673829317075,0.000551673829317075,2.811398983001709,0.7686100006103516
2,77,22,67,0.0005503874742767937,0.0005503874742767937,2.6841876109441123,0.7713029384613037
2,77,22,68,0.0006131403747815968,0.0006131403747815968,2.6881698767344155,0.7731964588165283
2,77,22,69,0.0005693618903952363,0.0005693618903952363,2.4585222403208413,0.770897626876831
2,77,22,70,0.0005256811130801619,0.0005256811130801619,2.6197030544281006,0.773470401763916
2,77,22,71,0.0005443668264180368,0.0005443668264180368,2.7062257528305054,0.7728838920593262
2,77,22,72,0.0005461214896759398,0.0005461214896759398,2.5582727591196694,0.7691450119018555
2,77,22,73,0.0005104004602205086,0.0005104004602205086,2.671376347541809,0.7691245079040527
2,77,22,74,0.0005419228863521191,0.0005419228863521191,2.8467206160227456,0.7710847854614258
2,77,22,75,0.0005286273825736149,0.0005286273825736149,2.525272329648336,0.7715835571289062
2,77,22,76,0.0005146076718313892,0.0005146076718313892,2.6826994021733603,0.7748382091522217
2,77,22,77,0.0005197844112177572,0.0005197844112177572,2.4685075680414834,0.7706699371337891
2,77,22,78,0.0005171910055108027,0.0005171910055108027,2.6134486198425293,0.7710776329040527
2,77,22,79,0.0005012594972672479,0.0005012594972672479,2.8572909832000732,0.7732470035552979
2,77,33,1,0.11710676709474042,0.11710676709474042,15.10406494140625,0.7691757678985596
2,77,33,2,0.009847375685364056,0.009847375685364056,10.310890992482504,0.7666125297546387
2,77,33,3,0.005309493510414327,0.005309493510414327,7.836979230244954,0.7657010555267334
2,77,33,4,0.0038542291753062828,0.0038542291753062828,7.199426968892415,0.7674355506896973
2,77,33,5,0.003087869005383891,0.003087869005383891,7.728830655415853,0.7678251266479492
2,77,33,6,0.002634455720082308,0.002634455720082308,5.646779696146647,0.7698302268981934
2,77,33,7,0.00235707546138828,0.00235707546138828,5.455048243204753,0.7709004878997803
2,77,33,8,0.00207132735830787,0.00207132735830787,4.883554776509603,0.7703127861022949
2,77,33,9,0.0019521735048737754,0.0019521735048737754,4.830634593963623,0.7716948986053467
2,77,33,10,0.0018367161241809973,0.0018367161241809973,5.563963413238525,0.7724945545196533
2,77,33,11,0.001647524285260259,0.001647524285260259,5.333153406778972,0.7727019786834717
2,77,33,12,0.0015766181597930123,0.0015766181597930123,5.480220476786296,0.7733011245727539
2,77,33,13,0.001448770587924527,0.001448770587924527,6.117056528727214,0.7712240219116211
2,77,33,14,0.0014277206321604203,0.0014277206321604203,4.355781078338623,0.7683541774749756
2,77,33,15,0.0013485163469674785,0.0013485163469674785,4.360380967458089,0.7705438137054443
2,77,33,16,0.0013399872801604458,0.0013399872801604458,3.845207770665487,0.7714860439300537
2,77,33,17,0.0012346176120578154,0.0012346176120578154,4.435583591461182,0.7699768543243408
2,77,33,18,0.001201824775230241,0.001201824775230241,3.9193464120229087,0.7662267684936523
2,77,33,19,0.001151009826408176,0.001151009826408176,3.8112622102101645,0.7666032314300537
2,77,33,20,0.0011276488844903236,0.0011276488844903236,4.106150150299072,0.7665259838104248
2,77,33,21,0.00110167956600462,0.00110167956600462,4.607679843902588,0.7647552490234375
2,77,33,22,0.001084695703403824,0.001084695703403824,3.520521402359009,0.7634947299957275
2,77,33,23,0.0009746398038849725,0.0009746398038849725,3.7563122113545737,0.7676520347595215
2,77,33,24,0.0009946873477685533,0.0009946873477685533,3.839651346206665,0.7711315155029297
2,77,33,25,0.0009786068564796608,0.0009786068564796608,3.8080782095591226,0.7745571136474609
2,77,33,26,0.0009462074733550031,0.0009462074733550031,3.580770413080851,0.7773983478546143
2,77,33,27,0.0009518614369851909,0.0009518614369851909,3.9871564706166587,0.7778213024139404
2,77,33,28,0.0008750739100951265,0.0008750739100951265,4.0339195728302,0.766434907913208
2,77,33,29,0.0008693914141533612,0.0008693914141533612,3.3020989894866943,0.7673680782318115
2,77,33,30,0.0008969494823873174,0.0008969494823873174,3.3048821290334067,0.7664320468902588
2,77,33,31,0.0008387717708570055,0.0008387717708570055,3.925485134124756,0.7675278186798096
2,77,33,32,0.0008070731737271974,0.0008070731737271974,3.3467483520507812,0.7670865058898926
2,77,33,33,0.000822825402959084,0.000822825402959084,3.2144492467244468,0.7673046588897705
2,77,33,34,0.0007799176501489901,0.0007799176501489901,3.2796987692515054,0.767343282699585
2,77,33,35,0.0007890677422451014,0.0007890677422451014,3.592644294102987,0.7662951946258545
2,77,33,36,0.0007958567854413916,0.0007958567854413916,3.04010009765625,0.7682547569274902
2,77,33,37,0.0007458770239630783,0.0007458770239630783,3.618220647176107,0.7681353092193604
2,77,33,38,0.0007582818470778689,0.0007582818470778689,3.280399799346924,0.7751929759979248
2,77,33,39,0.0007829559047745293,0.0007829559047745293,3.400243123372396,0.7709758281707764
2,77,33,40,0.0007328120689804742,0.0007328120689804742,4.707635243733724,0.7679033279418945
2,77,33,41,0.0007275929023757619,0.0007275929023757619,3.1939475536346436,0.7684659957885742
2,77,33,42,0.0007117899828201779,0.0007117899828201779,3.469869057337443,0.7705399990081787
2,77,33,43,0.0007080383038964499,0.0007080383038964499,2.9371604124704995,0.7721798419952393
2,77,33,44,0.0006893368711733195,0.0006893368711733195,3.153761943181356,0.7655484676361084
2,77,33,45,0.0006677653604257332,0.0006677653604257332,2.8575170040130615,0.7691600322723389
2,77,33,46,0.0006854199466331418,0.0006854199466331418,2.9287378787994385,0.769782543182373
2,77,33,47,0.0006656396099688399,0.0006656396099688399,3.567373196283976,0.7695987224578857
2,77,33,48,0.0006631203988951184,0.0006631203988951184,2.847226858139038,0.7694237232208252
2,77,33,49,0.0006428444133936928,0.0006428444133936928,2.783245801925659,0.7697391510009766
2,77,33,50,0.0006527449206630722,0.0006527449206630722,2.766883452733358,0.7701961994171143
2,77,33,51,0.0006303774244503311,0.0006303774244503311,3.200819174448649,0.7699143886566162
2,77,33,52,0.0006414042997572356,0.0006414042997572356,3.391306718190511,0.7704293727874756
2,77,33,53,0.0006263654617021641,0.0006263654617021641,2.9017046292622886,0.7698287963867188
2,77,33,54,0.0006465531202548156,0.0006465531202548156,2.9656050205230713,0.7692973613739014
2,77,33,55,0.0005942590217114266,0.0005942590217114266,2.861926476160685,0.7710216045379639
2,77,33,56,0.0006099435520701463,0.0006099435520701463,2.7013779878616333,0.7705581188201904
2,77,33,57,0.0006064264000809033,0.0006064264000809033,2.7657803297042847,0.7682607173919678
2,77,33,58,0.0005748715938590646,0.0005748715938590646,2.9372547467549643,0.7682492733001709
2,77,33,59,0.0005866555910670374,0.0005866555910670374,2.663332223892212,0.769784688949585
2,77,33,60,0.0005958447539110042,0.0005958447539110042,2.7026339371999106,0.7708842754364014
2,77,33,61,0.0005778707043698691,0.0005778707043698691,3.0960307916005454,0.771569013595581
2,77,33,62,0.0005823431597192163,0.0005823431597192163,2.860958973566691,0.7710111141204834
2,77,33,63,0.0005711722961308533,0.0005711722961308533,2.8441543579101562,0.7703194618225098
2,77,33,64,0.0005721688432625329,0.0005721688432625329,2.806971708933512,0.7729649543762207
2,77,33,65,0.0005463322636336507,0.0005463322636336507,2.795668840408325,0.7744863033294678
2,77,33,66,0.0005555117791417664,0.0005555117791417664,2.7147432963053384,0.7756192684173584
2,77,33,67,0.0005542213428848876,0.0005542213428848876,2.8869638442993164,0.774245023727417
2,77,33,68,0.0005600792976452432,0.0005600792976452432,3.075859705607096,0.7742984294891357
2,77,33,69,0.0005335619390830413,0.0005335619390830413,2.698824882507324,0.7731573581695557
2,128,11,1,0.08023636591438366,0.08023636591438366,9.958553473154703,0.8490369319915771
2,128,11,2,0.003942575498729239,0.003942575498729239,6.697758833567302,0.7787861824035645
2,128,11,3,0.0021972504145814104,0.0021972504145814104,5.263204733530681,0.7792205810546875
2,128,11,4,0.0016509382512770222,0.0016509382512770222,4.839039166768392,0.7799744606018066
2,128,11,5,0.001406295433469314,0.001406295433469314,4.286622444788615,0.7815814018249512
2,128,11,6,0.0012105350941531718,0.0012105350941531718,4.038481553395589,0.783475399017334
2,128,11,7,0.0010780790219207506,0.0010780790219207506,3.9182802041371665,0.7863945960998535
2,128,11,8,0.0009700233653228114,0.0009700233653228114,3.1558823585510254,0.7838013172149658
2,128,11,9,0.0008697278796598751,0.0008697278796598751,3.4896152019500732,0.7882094383239746
2,128,11,10,0.0007753256168070715,0.0007753256168070715,3.0495754877726235,0.7802386283874512
2,128,11,11,0.0006684831558342912,0.0006684831558342912,3.0134805838267007,0.7816236019134521
2,128,11,12,0.0007387000249316064,0.0007387000249316064,3.036099116007487,0.7806825637817383
2,128,11,13,0.0005735991837112622,0.0005735991837112622,3.209986448287964,0.7747409343719482
2,128,11,14,0.0005864017542315585,0.0005864017542315585,3.0124824047088623,0.7753746509552002
2,128,11,15,0.000548387948627491,0.000548387948627491,3.0412468910217285,0.7749595642089844
2,128,11,16,0.00045238726643059124,0.00045238726643059124,2.5310266415278115,0.776604175567627
2,128,11,17,0.00045801945525687933,0.00045801945525687933,2.421663999557495,0.7767720222473145
2,128,11,18,0.0004768909029808362,0.0004768909029808362,2.834860881169637,0.7824890613555908
2,128,11,19,0.0004143355937533,0.0004143355937533,2.3516245683034263,0.7869832515716553
2,128,11,20,0.00036379193040066924,0.00036379193040066924,2.407475392023722,0.7787280082702637
2,128,11,21,0.0003894845675060415,0.0003894845675060415,2.9916322231292725,0.778907060623169
2,128,11,22,0.00040746913593296815,0.00040746913593296815,1.9308781226476033,0.779853105545044
2,128,11,23,0.0003659745138997166,0.0003659745138997166,2.6511104106903076,0.7860074043273926
2,128,11,24,0.00037369363246871274,0.00037369363246871274,2.339863657951355,0.7821352481842041
2,128,11,25,0.0003241787062404583,0.0003241787062404583,2.027412176132202,0.7789707183837891
2,128,11,26,0.0003209749979271036,0.0003209749979271036,1.6381114721298218,0.7809829711914062
2,128,11,27,0.0002931800177394649,0.0002931800177394649,1.6904391050338745,0.7851753234863281
2,128,11,28,0.00029105772853619307,0.00029105772853619307,2.4637447198232016,0.7866694927215576
2,128,11,29,0.0002902764874079002,0.0002902764874079002,1.889190713564555,0.779430627822876
2,128,11,30,0.00029155734282861095,0.00029155734282861095,1.5589176416397095,0.7778244018554688
2,128,11,31,0.00026085597425953367,0.00026085597425953367,1.7513363758722942,0.7793748378753662
2,128,11,32,0.00035068629704562297,0.00035068629704562297,1.9847402572631836,0.7869648933410645
2,128,11,33,0.00021578164950680634,0.00021578164950680634,1.9679160515467327,0.7781593799591064
2,128,11,34,0.0002511375338848371,0.0002511375338848371,1.7380470434824626,0.7818701267242432
2,128,11,35,0.00024499098528473655,0.00024499098528473655,1.7083371877670288,0.7824180126190186
2,128,11,36,0.00022149866020899672,0.00022149866020899672,1.635270635286967,0.7835557460784912
2,128,11,37,0.0002477336090399486,0.0002477336090399486,1.6927773555119832,0.782646656036377
2,128,11,38,0.0002796548729429633,0.0002796548729429633,1.510716478029887,0.7825424671173096
2,128,11,39,0.00020638783544681878,0.00020638783544681878,1.8497263193130493,0.7827897071838379
2,128,11,40,0.00021622280916451351,0.00021622280916451351,1.819435954093933,0.7837827205657959
2,128,11,41,0.00020487990006927797,0.00020487990006927797,2.0703772703806558,0.7831330299377441
2,128,11,42,0.00017898088331086886,0.00017898088331086886,1.2326103846232097,0.7857568264007568
2,128,11,43,0.00021640178552904596,0.00021640178552904596,1.606991211573283,0.7790951728820801
2,128,11,44,0.00020131008833096278,0.00020131008833096278,1.6360493103663127,0.7784185409545898
2,128,11,45,0.00018712472670261613,0.00018712472670261613,1.754868984222412,0.7794113159179688
2,128,11,46,0.00019345154797895266,0.00019345154797895266,1.9583365519841511,0.7794065475463867
2,128,11,47,0.00018898970572912114,0.00018898970572912114,1.36371115843455,0.7808032035827637
2,128,11,48,0.00017561318252753633,0.00017561318252753633,1.2224550445874531,0.7801053524017334
2,128,11,49,0.0001837440912111832,0.0001837440912111832,1.5270241101582844,0.7831244468688965
2,128,11,50,0.0001783190231169888,0.0001783190231169888,1.3707221746444702,0.7870354652404785
2,128,11,51,0.00020431817015590008,0.00020431817015590008,1.7713552713394165,0.7843441963195801
2,128,11,52,0.0001672133931835566,0.0001672133931835566,1.2027380069096882,0.7820093631744385
2,128,11,53,0.00016574139537820054,0.00016574139537820054,1.1851438482602437,0.7819862365722656
2,128,11,54,0.00013568985109172805,0.00013568985109172805,1.7655463616053264,0.7831242084503174
2,128,11,55,0.0002018290464866295,0.0002018290464866295,1.0936928788820903,0.7830352783203125
2,128,11,56,0.0001446880067635685,0.0001446880067635685,1.147506316502889,0.7835688591003418
2,128,11,57,0.00016922551084102026,0.00016922551084102026,1.4866185188293457,0.781158447265625
2,128,11,58,0.0001436753686005287,0.0001436753686005287,1.3787065347035725,0.7810609340667725
2,128,11,59,0.00014448114478344734,0.00014448114478344734,2.385480006535848,0.7851467132568359
2,128,11,60,0.00014537583077423586,0.00014537583077423586,1.4811275800069172,0.7857060432434082
2,128,11,61,0.00019664397840034014,0.00019664397840034014,0.9883745511372884,0.7864959239959717
2,128,11,62,0.00012019196240063967,0.00012019196240063967,1.1602762937545776,0.7777190208435059
2,128,11,63,0.00015260830132115443,0.00015260830132115443,1.666067361831665,0.7787256240844727
2,128,11,64,0.00012873371656241126,0.00012873371656241126,2.1855938037236533,0.7790424823760986
2,128,11,65,0.00013690922933048196,0.00013690922933048196,1.2266584038734436,0.7779738903045654
2,128,11,66,0.00014583207013439215,0.00014583207013439215,1.9310075839360554,0.7805163860321045
2,128,11,67,0.00014258507879591625,0.00014258507879591625,1.062850038210551,0.7809762954711914
2,128,11,68,0.00013857473584759404,0.00013857473584759404,1.2810004154841106,0.7799901962280273
2,128,11,69,0.00012964018655050116,0.00012964018655050116,1.1924181183179219,0.7808747291564941
2,128,11,70,0.0001329944117873366,0.0001329944117873366,1.288648207982381,0.7812516689300537
2,128,11,71,0.00012488088797082576,0.00012488088797082576,1.2923198143641155,0.7839968204498291
2,128,22,1,0.07194429070555738,0.07194429070555738,8.734249432881674,0.7751264572143555
2,128,22,2,0.0033984499995448714,0.0033984499995448714,7.191827297210693,0.7749481201171875
2,128,22,3,0.0019027560635022879,0.0019027560635022879,6.632622877756755,0.7762119770050049
2,128,22,4,0.0015054078051188054,0.0015054078051188054,4.169619242350261,0.7765693664550781
2,128,22,5,0.0012655896153360797,0.0012655896153360797,4.38038428624471,0.7819118499755859
2,128,22,6,0.0011178702675665685,0.0011178702675665685,3.6901073455810547,0.7823679447174072
2,128,22,7,0.0009142495156882442,0.0009142495156882442,3.3023641109466553,0.7813737392425537
2,128,22,8,0.0009158673228783441,0.0009158673228783441,4.97968848546346,0.7837777137756348
2,128,22,9,0.0008081226616841479,0.0008081226616841479,3.115635395050049,0.7830584049224854
2,128,22,10,0.0006823435069411622,0.0006823435069411622,3.4325924714406333,0.7860269546508789
2,128,22,11,0.0006367723633819985,0.0006367723633819985,2.986696243286133,0.7866575717926025
2,128,22,12,0.0005977894114354703,0.0005977894114354703,3.0682934125264487,0.7850019931793213
2,128,22,13,0.0005727328138788833,0.0005727328138788833,2.4634163777033486,0.7791652679443359
2,128,22,14,0.000508455860459905,0.000508455860459905,2.3396526177724204,0.7787766456604004
2,128,22,15,0.0005330145621347506,0.0005330145621347506,2.348089337348938,0.7786452770233154
2,128,22,16,0.00044710131099632227,0.00044710131099632227,2.149186054865519,0.7789232730865479
2,128,22,17,0.0004562318183868125,0.0004562318183868125,2.8248023986816406,0.7790148258209229
2,128,22,18,0.0004077608609571305,0.0004077608609571305,2.1265645027160645,0.7833089828491211
2,128,22,19,0.0004042713388037848,0.0004042713388037848,1.9961745341618855,0.7901408672332764
2,128,22,20,0.00040673754521534233,0.00040673754521534233,1.776294469833374,0.7890610694885254
2,128,22,21,0.00040216050305561484,0.00040216050305561484,2.525286912918091,0.7799558639526367
2,128,22,22,0.00040161082741858986,0.00040161082741858986,2.751695394515991,0.7816066741943359
2,128,22,23,0.0002927810666710064,0.0002927810666710064,1.767107605934143,0.7806806564331055
2,128,22,24,0.0003611769985453746,0.0003611769985453746,1.9098252058029175,0.7823963165283203
2,128,22,25,0.00031522641682146747,0.00031522641682146747,2.3286608457565308,0.7814967632293701
2,128,22,26,0.0002778501692690504,0.0002778501692690504,1.9302609761555989,0.7816042900085449
2,128,22,27,0.0003359159708602719,0.0003359159708602719,1.8632981777191162,0.7816407680511475
2,128,22,28,0.0002513771700364669,0.0002513771700364669,1.6551881631215413,0.7817072868347168
2,128,22,29,0.0002948248839122804,0.0002948248839122804,1.8790884415308635,0.7823059558868408
2,128,22,30,0.0002899287210778897,0.0002899287210778897,2.6661901473999023,0.782496452331543
2,128,22,31,0.0002717328578257824,0.0002717328578257824,1.6420393387476604,0.786698579788208
2,128,22,32,0.00027325951090793725,0.00027325951090793725,1.733092188835144,0.787684440612793
2,128,22,33,0.00022450503936642107,0.00022450503936642107,1.7876664002736409,0.7824311256408691
2,128,22,34,0.0002469519579587437,0.0002469519579587437,1.7415396769841511,0.7826929092407227
2,128,22,35,0.00027604843529534,0.00027604843529534,2.4920128186543784,0.7826895713806152
2,128,22,36,0.00023239909892305312,0.00023239909892305312,1.7646936575571697,0.7826523780822754
2,128,22,37,0.0001982826670690815,0.0001982826670690815,1.2065590818723042,0.7827048301696777
2,128,22,38,0.00021404057556545037,0.00021404057556545037,1.3314757744471233,0.7840259075164795
2,128,22,39,0.00021262523716029355,0.00021262523716029355,1.9938300848007202,0.7836754322052002
2,128,22,40,0.00021632363230771463,0.00021632363230771463,1.3895583550135295,0.776505708694458
2,128,22,41,0.000212096858040985,0.000212096858040985,1.2929360071818035,0.7837600708007812
2,128,22,42,0.00020386070443483974,0.00020386070443483974,1.3508227666219075,0.777543306350708
2,128,22,43,0.0001885126874778221,0.0001885126874778221,1.5028940836588542,0.7757492065429688
2,128,22,44,0.0001919106449396499,0.0001919106449396499,1.242559810479482,0.7767283916473389
2,128,22,45,0.00017714796643976996,0.00017714796643976996,1.4680380423863728,0.778268575668335
2,128,22,46,0.00018382257350317216,0.00018382257350317216,1.9179426829020183,0.7848997116088867
2,128,22,47,0.00020710228481998945,0.00020710228481998945,1.4856266578038533,0.7818698883056641
2,128,33,1,0.06803973248365962,0.06803973248365962,8.68289311726888,0.7791187763214111
2,128,33,2,0.0033938567295003783,0.0033938567295003783,6.1371720631917315,0.7769069671630859
2,128,33,3,0.0019290014103774047,0.0019290014103774047,4.644976059595744,0.7779655456542969
2,128,33,4,0.0015069050909644875,0.0015069050909644875,4.372712135314941,0.778078556060791
2,128,33,5,0.0012191005950318247,0.0012191005950318247,4.594334681828816,0.7790021896362305
2,128,33,6,0.001159349024496871,0.001159349024496871,3.6182867685953775,0.7806155681610107
2,128,33,7,0.0009104206403257717,0.0009104206403257717,3.3478453159332275,0.778223991394043
2,128,33,8,0.0009253696025757307,0.0009253696025757307,3.1138974030812583,0.7746469974517822
2,128,33,9,0.000786454362808211,0.000786454362808211,3.020829916000366,0.775641918182373
2,128,33,10,0.0007337031911301425,0.0007337031911301425,4.553632736206055,0.7764620780944824
2,128,33,11,0.0006512946933287421,0.0006512946933287421,3.1474525133768716,0.7802579402923584
2,128,33,12,0.0005974742287473176,0.0005974742287473176,2.8255693117777505,0.7779350280761719
2,128,33,13,0.0005475728360829161,0.0005475728360829161,3.808170954386393,0.7734460830688477
2,128,33,14,0.0005199126221398774,0.0005199126221398774,2.9043309688568115,0.7749984264373779
2,128,33,15,0.0005542426047980095,0.0005542426047980095,2.508235971132914,0.7791733741760254
2,128,33,16,0.00047138720090903884,0.00047138720090903884,2.1074163913726807,0.7779524326324463
2,128,33,17,0.00039918137977556004,0.00039918137977556004,2.528322140375773,0.7819454669952393
2,128,33,18,0.00046067293886118457,0.00046067293886118457,2.2795958121617637,0.7820780277252197
2,128,33,19,0.00045902679946586,0.00045902679946586,2.2555359999338784,0.7838196754455566
2,128,33,20,0.00039446023469424566,0.00039446023469424566,3.3099277019500732,0.7804863452911377
2,128,33,21,0.00037801841339399144,0.00037801841339399144,2.2527357737223306,0.7833430767059326
2,128,33,22,0.0003519595861127548,0.0003519595861127548,1.8778904676437378,0.7846944332122803
2,128,33,23,0.0003307059861403437,0.0003307059861403437,2.366504192352295,0.78749680519104
2,128,33,24,0.000345604783593958,0.000345604783593958,3.0883633295694985,0.7780125141143799
2,128,33,25,0.00033049851636666533,0.00033049851636666533,2.191467007001241,0.7803201675415039
2,128,33,26,0.00028969731023867747,0.00028969731023867747,1.9647945165634155,0.781226396560669
2,128,33,27,0.0003347221622635935,0.0003347221622635935,2.650161027908325,0.7808914184570312
2,128,33,28,0.00026855452373139127,0.00026855452373139127,2.450762311617533,0.7862606048583984
2,128,33,29,0.00027933084356626957,0.00027933084356626957,1.568073312441508,0.7826108932495117
2,128,33,30,0.0002752285221837129,0.0002752285221837129,1.5994848410288494,0.7785060405731201
2,128,33,31,0.00022695933593463983,0.00022695933593463983,2.068839947382609,0.7827706336975098
2,128,33,32,0.0002437507086504478,0.0002437507086504478,1.5602997938791912,0.7826633453369141
2,128,33,33,0.0002747344461213244,0.0002747344461213244,1.5684481064478557,0.7809505462646484
2,128,33,34,0.0002056818605087814,0.0002056818605087814,1.5159570773442586,0.7780840396881104
2,128,33,35,0.0002743497454070966,0.0002743497454070966,1.8610029220581055,0.779529333114624
2,128,33,36,0.00023242676578107832,0.00023242676578107832,1.4301646153132122,0.7795705795288086
2,128,33,37,0.00023465005084687251,0.00023465005084687251,1.6492712497711182,0.7802801132202148
2,128,33,38,0.00020524428200033114,0.00020524428200033114,1.6213740110397339,0.7782886028289795
2,128,33,39,0.00018802412684824105,0.00018802412684824105,1.829367717107137,0.7823798656463623
2,128,33,40,0.00022571883833547455,0.00022571883833547455,2.3043476740519204,0.7777764797210693
2,128,33,41,0.00019472678820565224,0.00019472678820565224,1.4279008309046428,0.7803828716278076
2,128,33,42,0.00018492261232601936,0.00018492261232601936,2.117006778717041,0.7786002159118652
2,128,33,43,0.00022213882675568573,0.00022213882675568573,1.6145832935969036,0.7721250057220459
2,128,33,44,0.0001751746183662469,0.0001751746183662469,1.5446137984593709,0.7726850509643555
2,128,33,45,0.00016888338788621798,0.00016888338788621798,1.2385995984077454,0.7719180583953857
2,128,33,46,0.00018300672714381902,0.00018300672714381902,1.38507084051768,0.7729823589324951
2,128,33,47,0.00017742924807058051,0.00017742924807058051,1.7809509833653767,0.773270845413208
2,128,33,48,0.00019785679823338325,0.00019785679823338325,1.5015321572621663,0.7725787162780762
2,128,33,49,0.00017032233393001953,0.00017032233393001953,1.2254730463027954,0.7724997997283936
2,128,33,50,0.00017411164166563695,0.00017411164166563695,1.220717966556549,0.7731757164001465
2,128,33,51,0.00015429195119186684,0.00015429195119186684,1.4625560839970906,0.7735464572906494
2,128,33,52,0.00015507660560268029,0.00015507660560268029,1.7191557089487712,0.7766966819763184
2,128,33,53,0.00016786297682816996,0.00016786297682816996,1.2789613008499146,0.7797224521636963
2,128,33,54,0.00016415773595062518,0.00016415773595062518,1.2895758946736653,0.7838034629821777
2,128,33,55,0.0001296359343021842,0.0001296359343021842,1.6055224736531575,0.7837636470794678
2,128,33,56,0.00014851374379413375,0.00014851374379413375,1.0533406337102253,0.7847387790679932
2,128,33,57,0.00016971007850564708,0.00016971007850564708,1.2739900747934978,0.7827732563018799
2,128,33,58,0.00013613594287934856,0.00013613594287934856,1.2635808785756428,0.7823221683502197
2,128,33,59,0.00014185314638273682,0.00014185314638273682,1.131889522075653,0.7794549465179443
2,128,33,60,0.00017251521211492538,0.00017251521211492538,1.0288261373837788,0.7816710472106934
2,128,33,61,0.00013267761916217408,0.00013267761916217408,1.8192132314046223,0.783921480178833
2,128,33,62,0.00014055597849863314,0.00014055597849863314,1.8229206800460815,0.7851581573486328
2,128,33,63,0.00014322039503509809,0.00014322039503509809,1.0783809622128804,0.7850098609924316
2,128,33,64,0.00014549835265079104,0.00014549835265079104,1.6409302949905396,0.7816331386566162
2,128,33,65,0.00016384646302107034,0.00016384646302107034,1.3720184961954753,0.7836363315582275
2,128,33,66,0.00011636634909639054,0.00011636634909639054,1.213246464729309,0.7828812599182129
2,128,33,67,0.00012744131384659962,0.00012744131384659962,1.3395390907923381,0.7811520099639893
2,128,33,68,0.00013083841093519872,0.00013083841093519872,1.2994413773218791,0.7862060070037842
2,128,33,69,0.00011814041674346589,0.00011814041674346589,1.0905564427375793,0.7851009368896484
2,128,33,70,0.00012351184752922996,0.00012351184752922996,1.2927776177724202,0.7801904678344727
3,51,11,1,0.17997898168949816,0.17997898168949816,18.466533025105793,0.8700230121612549
3,51,11,2,0.03090308918845392,0.03090308918845392,14.721863428751627,0.7886488437652588
3,51,11,3,0.022211648680860237,0.022211648680860237,13.02119000752767,0.783254861831665
3,51,11,4,0.018548547310682412,0.018548547310682412,12.173722585042318,0.7835690975189209
3,51,11,5,0.01658497022505705,0.01658497022505705,12.510801315307617,0.7847638130187988
3,51,11,6,0.015291737811875483,0.015291737811875483,11.51520824432373,0.7862198352813721
3,51,11,7,0.014393384890351288,0.014393384890351288,11.035811106363932,0.7836272716522217
3,51,11,8,0.013792987509267829,0.013792987509267829,10.570045789082846,0.7849025726318359
3,51,11,9,0.01335711684941768,0.01335711684941768,10.702054659525553,0.7852187156677246
3,51,11,10,0.013058918837652641,0.013058918837652641,10.730762799580893,0.7774696350097656
3,51,11,11,0.01274812119521364,0.01274812119521364,10.682665824890137,0.7781927585601807
3,51,11,12,0.012422710299824833,0.012422710299824833,10.049619992574057,0.7780990600585938
3,51,11,13,0.012255880369963423,0.012255880369963423,10.692579905192057,0.7795822620391846
3,51,11,14,0.01204365091147074,0.01204365091147074,10.408881187438965,0.7809922695159912
3,51,11,15,0.011999007599494259,0.011999007599494259,10.208822250366211,0.7822556495666504
3,51,11,16,0.0118744361346264,0.0118744361346264,9.93537425994873,0.7820913791656494
3,51,11,17,0.011688794776589986,0.011688794776589986,9.95892588297526,0.7796428203582764
3,51,11,18,0.01156725472900985,0.01156725472900985,10.993906339009603,0.7810330390930176
3,51,11,19,0.01153281782981492,0.01153281782981492,11.034461657206217,0.779428243637085
3,51,11,20,0.011531229704951405,0.011531229704951405,9.953458468119303,0.7815783023834229
3,51,11,21,0.011249269249662129,0.011249269249662129,10.114629109700521,0.7820930480957031
3,51,11,22,0.01126776603372488,0.01126776603372488,9.549692630767822,0.7810935974121094
3,51,11,23,0.011187617830354187,0.011187617830354187,9.726191679636637,0.7831647396087646
3,51,11,24,0.011055529728519272,0.011055529728519272,9.881979942321777,0.7798144817352295
3,51,11,25,0.010981555807468612,0.010981555807468612,9.680925210316977,0.782771110534668
3,51,11,26,0.01096231800945347,0.01096231800945347,9.944806098937988,0.785290002822876
3,51,11,27,0.01094065977238483,0.01094065977238483,9.601831912994385,0.7857241630554199
3,51,11,28,0.010848363963525873,0.010848363963525873,9.723952611287435,0.7876560688018799
3,51,11,29,0.01079375224351305,0.01079375224351305,9.52918036778768,0.7886152267456055
3,51,11,30,0.01077968431055596,0.01077968431055596,9.610606988271078,0.7903711795806885
3,51,11,31,0.01068821448587748,0.01068821448587748,9.503276189168295,0.7844078540802002
3,51,11,32,0.010673336804063887,0.010673336804063887,9.49614922205607,0.789473295211792
3,51,11,33,0.010612126711510989,0.010612126711510989,9.465824921925863,0.7820451259613037
3,51,11,34,0.010570851066675898,0.010570851066675898,9.641307830810547,0.7897229194641113
3,51,11,35,0.010528425256522218,0.010528425256522218,10.60012435913086,0.7858328819274902
3,51,11,36,0.010546567253799854,0.010546567253799854,9.687510013580322,0.7359292507171631
3,51,11,37,0.010474608277408861,0.010474608277408861,9.78405729929606,0.7354626655578613
3,51,11,38,0.010504014851308693,0.010504014851308693,9.342918078104654,0.7346808910369873
3,51,11,39,0.010425357206946028,0.010425357206946028,9.556941986083984,0.735990047454834
3,51,11,40,0.010327489839310791,0.010327489839310791,9.431048234303793,0.7380585670471191
3,51,11,41,0.010273070366735904,0.010273070366735904,9.498566309611002,0.7430076599121094
3,51,11,42,0.010277254813198395,0.010277254813198395,9.542923132578531,0.7413477897644043
3,51,11,43,0.010259856353710212,0.010259856353710212,9.261820316314697,0.7332587242126465
3,51,11,44,0.010206259772555296,0.010206259772555296,9.261341253916422,0.732935905456543
3,51,11,45,0.010207572169790381,0.010207572169790381,9.601248423258463,0.7352650165557861
3,51,11,46,0.010223914325727279,0.010223914325727279,9.39468510945638,0.7376737594604492
3,51,11,47,0.010106338210039556,0.010106338210039556,9.611800193786621,0.7336091995239258
3,51,11,48,0.010129960517683279,0.010129960517683279,9.38068962097168,0.7352390289306641
3,51,11,49,0.010123084859159252,0.010123084859159252,9.562159538269043,0.7383584976196289
3,51,11,50,0.010100422425487693,0.010100422425487693,9.351129372914633,0.7386679649353027
3,51,11,51,0.010023530845924533,0.010023530845924533,9.235484600067139,0.7451131343841553
3,51,11,52,0.01000417705348883,0.01000417705348883,9.48250945409139,0.7365052700042725
3,51,11,53,0.01000586908638892,0.01000586908638892,9.446740309397379,0.738384485244751
3,51,11,54,0.009980769476949113,0.009980769476949113,9.223971843719482,0.7382352352142334
3,51,11,55,0.00992996736883514,0.00992996736883514,9.389778772989908,0.7359521389007568
3,51,11,56,0.009953080039647287,0.009953080039647287,9.279213746388754,0.743159294128418
3,51,11,57,0.009867529093459072,0.009867529093459072,9.365219910939535,0.7411007881164551
3,51,11,58,0.009926917809603537,0.009926917809603537,9.247573057810465,0.7359082698822021
3,51,11,59,0.009894681148997447,0.009894681148997447,9.288583596547445,0.7383608818054199
3,51,11,60,0.009867527857454239,0.009867527857454239,9.481233914693197,0.7428512573242188
3,51,11,61,0.009862616337037961,0.009862616337037961,9.321334997812906,0.7394447326660156
3,51,11,62,0.009849287500419666,0.009849287500419666,9.199588616689047,0.7388381958007812
3,51,11,63,0.009839120716748612,0.009839120716748612,9.238325754801432,0.7467260360717773
3,51,11,64,0.00979135491575851,0.00979135491575851,9.349956830342611,0.7345461845397949
3,51,11,65,0.009795088765429706,0.009795088765429706,9.291455268859863,0.7329139709472656
3,51,11,66,0.009780719756929308,0.009780719756929308,9.200665791829428,0.7345092296600342
3,51,11,67,0.009761351948324434,0.009761351948324434,9.11148182551066,0.7333707809448242
3,51,11,68,0.009685683614632483,0.009685683614632483,9.200246175130209,0.7330408096313477
3,51,11,69,0.009723106696008128,0.009723106696008128,9.542935689290365,0.732365608215332
3,51,11,70,0.009764724261870271,0.009764724261870271,9.147547721862793,0.7325785160064697
3,51,11,71,0.009712475692793652,0.009712475692793652,9.08131202061971,0.7339727878570557
3,51,11,72,0.00965543703253037,0.00965543703253037,9.160741806030273,0.733043909072876
3,51,11,73,0.0096550591370094,0.0096550591370094,9.251332600911459,0.7346541881561279
3,51,11,74,0.00966458879316989,0.00966458879316989,9.050540129343668,0.7354331016540527
3,51,11,75,0.009628128969467058,0.009628128969467058,9.229306062062582,0.7364661693572998
3,51,11,76,0.009617207846706373,0.009617207846706373,9.06479024887085,0.7465977668762207
3,51,11,77,0.0096212442215174,0.0096212442215174,9.266359647115072,0.7329220771789551
3,51,11,78,0.009607494238632124,0.009607494238632124,9.168346087137857,0.7341854572296143
3,51,11,79,0.00959234901202896,0.00959234901202896,9.184867223103842,0.7325081825256348
3,51,11,80,0.009603583275907457,0.009603583275907457,9.106492042541504,0.7344763278961182
3,51,11,81,0.009549963863607352,0.009549963863607352,9.236403465270996,0.7342772483825684
3,51,11,82,0.009599212980334464,0.009599212980334464,9.170446077982584,0.7460031509399414
3,51,11,83,0.009522885144617516,0.009522885144617516,9.260749022165934,0.745358943939209
3,51,11,84,0.009538769222557242,0.009538769222557242,9.492566426595053,0.7448492050170898
3,51,22,1,0.18714146034613025,0.18714146034613025,18.422295252482098,0.7445807456970215
3,51,22,2,0.030668907066961064,0.030668907066961064,14.96272087097168,0.7434885501861572
3,51,22,3,0.022117515934810268,0.022117515934810268,13.177677472432455,0.7381832599639893
3,51,22,4,0.018345849451877515,0.018345849451877515,12.444077809651693,0.7329354286193848
3,51,22,5,0.016356168159332385,0.016356168159332385,11.774120012919107,0.7328710556030273
3,51,22,6,0.01515175154413808,0.01515175154413808,11.186534563700357,0.7330880165100098
3,51,22,7,0.014444904580938474,0.014444904580938474,11.193163871765137,0.7324709892272949
3,51,22,8,0.013675209619324736,0.013675209619324736,10.688310941060385,0.7349896430969238
3,51,22,9,0.013339557015913434,0.013339557015913434,10.59585952758789,0.7332611083984375
3,51,22,10,0.01298772897665557,0.01298772897665557,10.646299997965494,0.737185001373291
3,51,22,11,0.012608477465720441,0.012608477465720441,10.144326210021973,0.7332422733306885
3,51,22,12,0.012480727364709617,0.012480727364709617,10.842809995015463,0.7348105907440186
3,51,22,13,0.012215148843667811,0.012215148843667811,10.292824427286783,0.7340013980865479
3,51,22,14,0.012151776813755902,0.012151776813755902,10.051777839660645,0.7367825508117676
3,51,22,15,0.011792141167544344,0.011792141167544344,10.02646573384603,0.7366249561309814
3,51,22,16,0.011729781728702744,0.011729781728702744,10.16525681813558,0.7384557723999023
3,51,22,17,0.011632342308502124,0.011632342308502124,9.9197998046875,0.7434678077697754
3,51,22,18,0.011517870200650286,0.011517870200650286,10.15921719868978,0.7403707504272461
3,51,22,19,0.011441162373543942,0.011441162373543942,10.002372741699219,0.7419829368591309
3,51,22,20,0.011332700193920887,0.011332700193920887,10.450502077738443,0.7343142032623291
3,51,22,21,0.01124483527706757,0.01124483527706757,9.618348280588785,0.7419283390045166
3,51,22,22,0.011255798503304212,0.011255798503304212,9.605594635009766,0.7447006702423096
3,51,22,23,0.011195928623199363,0.011195928623199363,10.215641021728516,0.7412357330322266
3,51,22,24,0.011048921419254192,0.011048921419254192,9.649051348368326,0.7421243190765381
3,51,22,25,0.01101680247201058,0.01101680247201058,9.765157381693522,0.741053581237793
3,51,22,26,0.010965415082626911,0.010965415082626911,9.828674952189127,0.7425603866577148
3,51,22,27,0.01089496376043151,0.01089496376043151,9.63212505976359,0.7419159412384033
3,51,22,28,0.010879997422362711,0.010879997422362711,9.59435764948527,0.7399845123291016
3,51,22,29,0.010766738986448835,0.010766738986448835,9.855854670206705,0.7326304912567139
3,51,22,30,0.010825545523899905,0.010825545523899905,9.829940795898438,0.7334005832672119
3,51,22,31,0.010761277612713347,0.010761277612713347,9.517344315846762,0.73386549949646
3,51,22,32,0.010668237248363372,0.010668237248363372,9.354439735412598,0.7380225658416748
3,51,22,33,0.010631711089521847,0.010631711089521847,9.775530815124512,0.7366108894348145
3,51,22,34,0.010599349869625614,0.010599349869625614,9.43333625793457,0.739492654800415
3,51,22,35,0.010537840360791296,0.010537840360791296,9.85616397857666,0.7453427314758301
3,51,22,36,0.010474435437759652,0.010474435437759652,10.026398340861002,0.7386677265167236
3,51,22,37,0.010483340889491882,0.010483340889491882,9.553804874420166,0.7400767803192139
3,51,22,38,0.010494350066995893,0.010494350066995893,9.609233856201172,0.7406363487243652
3,51,22,39,0.010430550482281142,0.010430550482281142,9.649336814880371,0.7427768707275391
3,51,22,40,0.010416520464204214,0.010416520464204214,9.543960730234781,0.7334036827087402
3,51,22,41,0.010334168376266002,0.010334168376266002,9.70346736907959,0.7330365180969238
3,51,22,42,0.01030006735392455,0.01030006735392455,9.750227292378744,0.7334785461425781
3,51,33,1,0.21226679674753351,0.21226679674753351,19.141677220662434,0.7471170425415039
3,51,33,2,0.03219132016697179,0.03219132016697179,14.98394775390625,0.7330234050750732
3,51,33,3,0.02300648457365987,0.02300648457365987,13.538790384928385,0.7328882217407227
3,51,33,4,0.01906421480144407,0.01906421480144407,12.484635353088379,0.7353672981262207
3,51,33,5,0.016723097580002896,0.016723097580002896,11.682659784952799,0.7377955913543701
3,51,33,6,0.01551726846492411,0.01551726846492411,12.920341809590658,0.7338724136352539
3,51,33,7,0.014647827398905163,0.014647827398905163,10.917152404785156,0.7336359024047852
3,51,33,8,0.013977782803934701,0.013977782803934701,11.263166745503744,0.7362391948699951
3,51,33,9,0.01341326120128921,0.01341326120128921,11.781753857930502,0.741579532623291
3,51,33,10,0.013028057832365093,0.013028057832365093,10.516577084859213,0.7415497303009033
3,51,33,11,0.012698286313494482,0.012698286313494482,10.492499987284342,0.7405178546905518
3,51,33,12,0.012536686310359289,0.012536686310359289,10.614067395528158,0.7412731647491455
3,51,33,13,0.01227711057243319,0.01227711057243319,10.829138120015463,0.7408568859100342
3,51,33,14,0.012172785692048866,0.012172785692048866,10.694788932800293,0.7393584251403809
3,51,33,15,0.011961349034854674,0.011961349034854674,10.21090571085612,0.7469513416290283
3,51,33,16,0.01183661044548575,0.01183661044548575,9.971422831217447,0.739159345626831
3,51,33,17,0.011651608456887343,0.011651608456887343,10.069537480672201,0.746429443359375
3,51,33,18,0.011585996684918266,0.011585996684918266,9.714796225229898,0.7382750511169434
3,51,33,19,0.011472748251691535,0.011472748251691535,10.100661277770996,0.742689847946167
3,51,33,20,0.01139608079184343,0.01139608079184343,9.998640060424805,0.7459912300109863
3,51,33,21,0.011327173987255882,0.011327173987255882,9.838065465291342,0.7434430122375488
3,51,33,22,0.011208392070326798,0.011208392070326798,10.436633110046387,0.7335429191589355
3,51,33,23,0.011120250005695912,0.011120250005695912,9.838766733805338,0.7328710556030273
3,51,33,24,0.01109575374840333,0.01109575374840333,9.73515764872233,0.7318673133850098
3,51,33,25,0.011034907892497153,0.011034907892497153,9.708810965220133,0.7319576740264893
3,51,33,26,0.010981725147983427,0.010981725147983427,9.575711250305176,0.7346727848052979
3,51,33,27,0.010866293852479773,0.010866293852479773,9.967793464660645,0.7328100204467773
3,51,33,28,0.010880377581013245,0.010880377581013245,9.9157346089681,0.7348339557647705
3,51,33,29,0.01080585963801052,0.01080585963801052,9.612640539805094,0.7330539226531982
3,51,33,30,0.010743933923787502,0.010743933923787502,9.525689601898193,0.7327072620391846
3,51,33,31,0.010709155321868787,0.010709155321868787,9.734136581420898,0.733856201171875
3,51,33,32,0.010683500983800996,0.010683500983800996,9.762428601582846,0.7329223155975342
3,51,33,33,0.010558938901262077,0.010558938901262077,9.607633590698242,0.7340912818908691
3,51,33,34,0.010660349398468187,0.010660349398468187,9.513393719991049,0.7370145320892334
3,51,33,35,0.01053248442596368,0.01053248442596368,9.535705407460531,0.7402472496032715
3,51,33,36,0.010467265375291466,0.010467265375291466,9.863240877787272,0.7420854568481445
3,51,33,37,0.010488564688021326,0.010488564688021326,9.264410654703775,0.7417254447937012
3,51,33,38,0.01041870948765898,0.01041870948765898,9.312196254730225,0.7400345802307129
3,51,33,39,0.010397769283019572,0.010397769283019572,9.500619411468506,0.7411224842071533
3,51,33,40,0.010353618082362674,0.010353618082362674,9.479156017303467,0.7427234649658203
3,51,33,41,0.010343712064300932,0.010343712064300932,9.579417705535889,0.7410907745361328
